                                       - FLUX SUMMARY -
 L2-CPE V1.3            Kappa-distribution     
 Cartesian (LRAD) Algorithm
 
 
 Phenomenological Region  =>  Solar Wind at SolMax (IMP-8)
 
 
 
 Species  =>  Protons
 
 Positive Y direction flux calculated.
 
 Minimum Energy =     0.0010 keV
 Maximum Energy =  1000.0000 keV
 
 Number of Energy Bins =    50
 
 50% Total Flux        =   0.6936E+07 (#/cm^2/sec)
 95% Total Flux        =   0.1282E+09 (#/cm^2/sec)
  5% Total Flux        =   0.5152E+06 (#/cm^2/sec)
  95% Total Flux       =   0.1282E+09 (#/cm^2/sec)
 Maximum Total Flux    =   0.1623E+10 (#/cm^2/sec)
 Minimum Total Flux    =   0.2599E+04 (#/cm^2/sec)
 Mean Total Flux       =   0.2664E+08 (#/cm^2/sec)
 Std. Dev. Total Flux  =   0.5249E+08 (#/cm^2/sec)
 
 
                        Differential Energy Flux Table  (#/cm^2/sec/keV)
 
    E1(keV)   E2(keV)    50%          95%         5%          95%       Maximum     Minimum     Mean       Std. Dev.
    0.0010    0.0013  0.1092E+10  0.7513E+10  0.1114E+09  0.7513E+10  0.5349E+11  0.1399E+06  0.2055E+10  0.2789E+10
    0.0013    0.0017  0.9675E+09  0.6997E+10  0.9392E+08  0.6997E+10  0.4311E+11  0.1545E+06  0.1896E+10  0.2656E+10
    0.0017    0.0023  0.8344E+09  0.6470E+10  0.7706E+08  0.6470E+10  0.4651E+11  0.1739E+06  0.1725E+10  0.2507E+10
    0.0023    0.0030  0.6989E+09  0.5908E+10  0.6095E+08  0.5908E+10  0.4894E+11  0.2004E+06  0.1545E+10  0.2338E+10
    0.0030    0.0040  0.5673E+09  0.5391E+10  0.4612E+08  0.5391E+10  0.4937E+11  0.2305E+06  0.1362E+10  0.2160E+10
    0.0040    0.0052  0.4439E+09  0.4831E+10  0.3317E+08  0.4831E+10  0.4671E+11  0.1782E+06  0.1183E+10  0.1979E+10
    0.0052    0.0069  0.3319E+09  0.4394E+10  0.2305E+08  0.4394E+10  0.5079E+11  0.1305E+06  0.1011E+10  0.1803E+10
    0.0069    0.0091  0.2338E+09  0.3839E+10  0.1526E+08  0.3839E+10  0.4654E+11  0.9170E+05  0.8495E+09  0.1630E+10
    0.0091    0.0120  0.1566E+09  0.3315E+10  0.9735E+07  0.3315E+10  0.3451E+11  0.6238E+05  0.6973E+09  0.1439E+10
    0.0120    0.0158  0.9916E+08  0.2907E+10  0.5947E+07  0.2907E+10  0.2584E+11  0.4106E+05  0.5560E+09  0.1236E+10
    0.0158    0.0209  0.5989E+08  0.2381E+10  0.3498E+07  0.2381E+10  0.1724E+11  0.2069E+05  0.4301E+09  0.1048E+10
    0.0209    0.0275  0.3531E+08  0.1814E+10  0.1988E+07  0.1814E+10  0.1545E+11  0.9264E+04  0.3203E+09  0.8765E+09
    0.0275    0.0363  0.2007E+08  0.1233E+10  0.1085E+07  0.1233E+10  0.1749E+11  0.3989E+04  0.2272E+09  0.7189E+09
    0.0363    0.0479  0.1086E+08  0.7489E+09  0.5755E+06  0.7489E+09  0.1457E+11  0.1657E+04  0.1504E+09  0.5696E+09
    0.0479    0.0631  0.5762E+07  0.4977E+09  0.2939E+06  0.4977E+09  0.1561E+11  0.6656E+03  0.9063E+08  0.4163E+09
    0.0631    0.0832  0.3027E+07  0.2544E+09  0.1444E+06  0.2544E+09  0.1431E+11  0.2594E+03  0.4871E+08  0.2434E+09
    0.0832    0.1096  0.1568E+07  0.1124E+09  0.6939E+05  0.1124E+09  0.1024E+11  0.9835E+02  0.2477E+08  0.1245E+09
    0.1096    0.1445  0.8112E+06  0.4630E+08  0.3206E+05  0.4630E+08  0.5639E+10  0.3637E+02  0.1301E+08  0.7148E+08
    0.1445    0.1905  0.4151E+06  0.1995E+08  0.1446E+05  0.1995E+08  0.7351E+10  0.1154E+02  0.7159E+07  0.4990E+08
    0.1905    0.2512  0.2103E+06  0.8668E+07  0.6393E+04  0.8668E+07  0.1749E+10  0.3588E+01  0.3923E+07  0.2782E+08
    0.2512    0.3311  0.1052E+06  0.3751E+07  0.2730E+04  0.3751E+07  0.8733E+09  0.1098E+01  0.2129E+07  0.1598E+08
    0.3311    0.4365  0.5199E+05  0.1717E+07  0.1153E+04  0.1717E+07  0.3450E+09  0.3315E+00  0.1134E+07  0.9136E+07
    0.4365    0.5754  0.2544E+05  0.8172E+06  0.4788E+03  0.8172E+06  0.2260E+09  0.9886E-01  0.5907E+06  0.5158E+07
    0.5754    0.7586  0.1232E+05  0.4001E+06  0.1946E+03  0.4001E+06  0.1604E+09  0.2917E-01  0.2996E+06  0.2799E+07
    0.7586    1.0000  0.5921E+04  0.2011E+06  0.7831E+02  0.2011E+06  0.1050E+09  0.8528E-02  0.1482E+06  0.1452E+07
    1.0000    1.3183  0.2803E+04  0.1034E+06  0.3083E+02  0.1034E+06  0.6336E+08  0.2473E-02  0.7190E+05  0.7254E+06
    1.3183    1.7378  0.1316E+04  0.5388E+05  0.1215E+02  0.5388E+05  0.3527E+08  0.7122E-03  0.3451E+05  0.3531E+06
    1.7378    2.2909  0.6161E+03  0.2845E+05  0.4671E+01  0.2845E+05  0.1824E+08  0.2038E-03  0.1655E+05  0.1693E+06
    2.2909    3.0200  0.2870E+03  0.1530E+05  0.1808E+01  0.1530E+05  0.8839E+07  0.5802E-04  0.8001E+04  0.8079E+05
    3.0200    3.9811  0.1338E+03  0.8367E+04  0.6941E+00  0.8367E+04  0.4056E+07  0.1644E-04  0.3924E+04  0.3871E+05
    3.9811    5.2481  0.6192E+02  0.4591E+04  0.2630E+00  0.4591E+04  0.1791E+07  0.4639E-05  0.1960E+04  0.1878E+05
    5.2481    6.9183  0.2871E+02  0.2527E+04  0.9950E-01  0.2527E+04  0.8364E+06  0.1305E-05  0.9985E+03  0.9297E+04
    6.9183    9.1201  0.1328E+02  0.1402E+04  0.3762E-01  0.1402E+04  0.4229E+06  0.3657E-06  0.5192E+03  0.4719E+04
    9.1201   12.0226  0.6130E+01  0.7889E+03  0.1416E-01  0.7889E+03  0.2136E+06  0.1022E-06  0.2753E+03  0.2460E+04
   12.0226   15.8489  0.2819E+01  0.4463E+03  0.5282E-02  0.4463E+03  0.1080E+06  0.2852E-07  0.1486E+03  0.1317E+04
   15.8489   20.8930  0.1299E+01  0.2533E+03  0.1956E-02  0.2533E+03  0.5738E+05  0.7939E-08  0.8150E+02  0.7215E+03
   20.8930   27.5423  0.6009E+00  0.1448E+03  0.7261E-03  0.1448E+03  0.3452E+05  0.2206E-08  0.4536E+02  0.4036E+03
   27.5423   36.3078  0.2744E+00  0.8336E+02  0.2698E-03  0.8336E+02  0.2135E+05  0.6120E-09  0.2557E+02  0.2297E+03
   36.3078   47.8630  0.1260E+00  0.4796E+02  0.9917E-04  0.4796E+02  0.1336E+05  0.1696E-09  0.1458E+02  0.1327E+03
   47.8630   63.0957  0.5796E-01  0.2750E+02  0.3624E-04  0.2750E+02  0.8350E+04  0.4693E-10  0.8395E+01  0.7762E+02
   63.0957   83.1764  0.2657E-01  0.1584E+02  0.1327E-04  0.1584E+02  0.5210E+04  0.1297E-10  0.4878E+01  0.4588E+02
   83.1764  109.6478  0.1225E-01  0.9133E+01  0.4846E-05  0.9133E+01  0.3247E+04  0.3584E-11  0.2856E+01  0.2735E+02
  109.6478  144.5440  0.5635E-02  0.5340E+01  0.1759E-05  0.5340E+01  0.2022E+04  0.9891E-12  0.1685E+01  0.1643E+02
  144.5440  190.5461  0.2594E-02  0.3098E+01  0.6402E-06  0.3098E+01  0.1258E+04  0.2728E-12  0.9997E+00  0.9933E+01
  190.5461  251.1887  0.1196E-02  0.1816E+01  0.2325E-06  0.1816E+01  0.7815E+03  0.7521E-13  0.5966E+00  0.6037E+01
  251.1887  331.1311  0.5510E-03  0.1057E+01  0.8461E-07  0.1057E+01  0.4854E+03  0.2072E-13  0.3579E+00  0.3685E+01
  331.1311  436.5159  0.2552E-03  0.6170E+00  0.3058E-07  0.6170E+00  0.3013E+03  0.5706E-14  0.2157E+00  0.2259E+01
  436.5159  575.4399  0.1175E-03  0.3603E+00  0.1104E-07  0.3603E+00  0.1869E+03  0.1571E-14  0.1305E+00  0.1389E+01
  575.4399  758.5778  0.5378E-04  0.2102E+00  0.3985E-08  0.2102E+00  0.1159E+03  0.4323E-15  0.7928E-01  0.8568E+00
  758.5778 1000.0000  0.2475E-04  0.1234E+00  0.1445E-08  0.1234E+00  0.7183E+02  0.1189E-15  0.4833E-01  0.5299E+00
 
 
                       Particle Flux per Energy Bin Table  (#/cm^2/sec)
 
    E1(keV)   E2(keV)    50%          95%         5%          95%       Maximum     Minimum     Mean       Std. Dev.
    0.0010    0.0013  0.3474E+06  0.2391E+07  0.3545E+05  0.2391E+07  0.1702E+08  0.4452E+02  0.6540E+06  0.8878E+06
    0.0013    0.0017  0.4059E+06  0.2936E+07  0.3940E+05  0.2936E+07  0.1809E+08  0.6482E+02  0.7954E+06  0.1114E+07
    0.0017    0.0023  0.4615E+06  0.3578E+07  0.4262E+05  0.3578E+07  0.2572E+08  0.9617E+02  0.9540E+06  0.1387E+07
    0.0023    0.0030  0.5095E+06  0.4308E+07  0.4444E+05  0.4308E+07  0.3568E+08  0.1461E+03  0.1126E+07  0.1705E+07
    0.0030    0.0040  0.5453E+06  0.5182E+07  0.4433E+05  0.5182E+07  0.4745E+08  0.2215E+03  0.1309E+07  0.2076E+07
    0.0040    0.0052  0.5624E+06  0.6121E+07  0.4202E+05  0.6121E+07  0.5918E+08  0.2258E+03  0.1498E+07  0.2507E+07
    0.0052    0.0069  0.5544E+06  0.7339E+07  0.3850E+05  0.7339E+07  0.8483E+08  0.2180E+03  0.1689E+07  0.3012E+07
    0.0069    0.0091  0.5148E+06  0.8452E+07  0.3359E+05  0.8452E+07  0.1025E+09  0.2019E+03  0.1871E+07  0.3589E+07
    0.0091    0.0120  0.4545E+06  0.9622E+07  0.2826E+05  0.9622E+07  0.1002E+09  0.1811E+03  0.2024E+07  0.4178E+07
    0.0120    0.0158  0.3794E+06  0.1112E+08  0.2276E+05  0.1112E+08  0.9886E+08  0.1571E+03  0.2128E+07  0.4729E+07
    0.0158    0.0209  0.3021E+06  0.1201E+08  0.1765E+05  0.1201E+08  0.8696E+08  0.1044E+03  0.2169E+07  0.5285E+07
    0.0209    0.0275  0.2348E+06  0.1206E+08  0.1322E+05  0.1206E+08  0.1027E+09  0.6160E+02  0.2130E+07  0.5828E+07
    0.0275    0.0363  0.1759E+06  0.1081E+08  0.9507E+04  0.1081E+08  0.1533E+09  0.3497E+02  0.1992E+07  0.6301E+07
    0.0363    0.0479  0.1255E+06  0.8654E+07  0.6650E+04  0.8654E+07  0.1684E+09  0.1915E+02  0.1738E+07  0.6582E+07
    0.0479    0.0631  0.8778E+05  0.7582E+07  0.4477E+04  0.7582E+07  0.2378E+09  0.1014E+02  0.1381E+07  0.6341E+07
    0.0631    0.0832  0.6078E+05  0.5108E+07  0.2899E+04  0.5108E+07  0.2873E+09  0.5209E+01  0.9781E+06  0.4887E+07
    0.0832    0.1096  0.4151E+05  0.2975E+07  0.1837E+04  0.2975E+07  0.2712E+09  0.2603E+01  0.6556E+06  0.3296E+07
    0.1096    0.1445  0.2831E+05  0.1616E+07  0.1119E+04  0.1616E+07  0.1968E+09  0.1269E+01  0.4540E+06  0.2494E+07
    0.1445    0.1905  0.1910E+05  0.9177E+06  0.6652E+03  0.9177E+06  0.3382E+09  0.5309E+00  0.3293E+06  0.2296E+07
    0.1905    0.2512  0.1276E+05  0.5257E+06  0.3877E+03  0.5257E+06  0.1060E+09  0.2176E+00  0.2379E+06  0.1687E+07
    0.2512    0.3311  0.8412E+04  0.2999E+06  0.2183E+03  0.2999E+06  0.6982E+08  0.8780E-01  0.1702E+06  0.1277E+07
    0.3311    0.4365  0.5479E+04  0.1809E+06  0.1215E+03  0.1809E+06  0.3636E+08  0.3494E-01  0.1195E+06  0.9628E+06
    0.4365    0.5754  0.3535E+04  0.1135E+06  0.6652E+02  0.1135E+06  0.3140E+08  0.1373E-01  0.8206E+05  0.7166E+06
    0.5754    0.7586  0.2257E+04  0.7327E+05  0.3564E+02  0.7327E+05  0.2937E+08  0.5342E-02  0.5488E+05  0.5125E+06
    0.7586    1.0000  0.1429E+04  0.4855E+05  0.1891E+02  0.4855E+05  0.2536E+08  0.2059E-02  0.3579E+05  0.3506E+06
    1.0000    1.3183  0.8921E+03  0.3291E+05  0.9813E+01  0.3291E+05  0.2016E+08  0.7871E-03  0.2288E+05  0.2309E+06
    1.3183    1.7378  0.5523E+03  0.2260E+05  0.5096E+01  0.2260E+05  0.1480E+08  0.2988E-03  0.1448E+05  0.1481E+06
    1.7378    2.2909  0.3407E+03  0.1574E+05  0.2583E+01  0.1574E+05  0.1009E+08  0.1127E-03  0.9154E+04  0.9364E+05
    2.2909    3.0200  0.2092E+03  0.1116E+05  0.1318E+01  0.1116E+05  0.6444E+07  0.4230E-04  0.5834E+04  0.5891E+05
    3.0200    3.9811  0.1286E+03  0.8042E+04  0.6671E+00  0.8042E+04  0.3899E+07  0.1580E-04  0.3771E+04  0.3720E+05
    3.9811    5.2481  0.7846E+02  0.5817E+04  0.3332E+00  0.5817E+04  0.2269E+07  0.5878E-05  0.2483E+04  0.2379E+05
    5.2481    6.9183  0.4795E+02  0.4221E+04  0.1662E+00  0.4221E+04  0.1397E+07  0.2179E-05  0.1668E+04  0.1553E+05
    6.9183    9.1201  0.2923E+02  0.3088E+04  0.8284E-01  0.3088E+04  0.9312E+06  0.8053E-06  0.1143E+04  0.1039E+05
    9.1201   12.0226  0.1779E+02  0.2290E+04  0.4111E-01  0.2290E+04  0.6201E+06  0.2968E-06  0.7990E+03  0.7142E+04
   12.0226   15.8489  0.1079E+02  0.1707E+04  0.2021E-01  0.1707E+04  0.4131E+06  0.1091E-06  0.5685E+03  0.5038E+04
   15.8489   20.8930  0.6551E+01  0.1278E+04  0.9865E-02  0.1278E+04  0.2894E+06  0.4004E-07  0.4111E+03  0.3639E+04
   20.8930   27.5423  0.3996E+01  0.9628E+03  0.4828E-02  0.9628E+03  0.2295E+06  0.1467E-07  0.3016E+03  0.2683E+04
   27.5423   36.3078  0.2405E+01  0.7307E+03  0.2365E-02  0.7307E+03  0.1871E+06  0.5365E-08  0.2241E+03  0.2014E+04
   36.3078   47.8630  0.1456E+01  0.5542E+03  0.1146E-02  0.5542E+03  0.1544E+06  0.1959E-08  0.1685E+03  0.1533E+04
   47.8630   63.0957  0.8829E+00  0.4189E+03  0.5520E-03  0.4189E+03  0.1272E+06  0.7149E-09  0.1279E+03  0.1182E+04
   63.0957   83.1764  0.5336E+00  0.3181E+03  0.2665E-03  0.3181E+03  0.1046E+06  0.2605E-09  0.9795E+02  0.9212E+03
   83.1764  109.6478  0.3242E+00  0.2418E+03  0.1283E-03  0.2418E+03  0.8596E+05  0.9487E-10  0.7562E+02  0.7241E+03
  109.6478  144.5440  0.1966E+00  0.1864E+03  0.6139E-04  0.1864E+03  0.7055E+05  0.3452E-10  0.5878E+02  0.5734E+03
  144.5440  190.5461  0.1193E+00  0.1425E+03  0.2945E-04  0.1425E+03  0.5785E+05  0.1255E-10  0.4599E+02  0.4569E+03
  190.5461  251.1887  0.7253E-01  0.1101E+03  0.1410E-04  0.1101E+03  0.4739E+05  0.4561E-11  0.3618E+02  0.3661E+03
  251.1887  331.1311  0.4405E-01  0.8452E+02  0.6764E-05  0.8452E+02  0.3880E+05  0.1656E-11  0.2861E+02  0.2946E+03
  331.1311  436.5159  0.2690E-01  0.6503E+02  0.3222E-05  0.6503E+02  0.3175E+05  0.6014E-12  0.2273E+02  0.2380E+03
  436.5159  575.4399  0.1633E-01  0.5005E+02  0.1534E-05  0.5005E+02  0.2596E+05  0.2182E-12  0.1813E+02  0.1930E+03
  575.4399  758.5778  0.9850E-02  0.3850E+02  0.7297E-06  0.3850E+02  0.2122E+05  0.7917E-13  0.1452E+02  0.1569E+03
  758.5778 1000.0000  0.5975E-02  0.2980E+02  0.3488E-06  0.2980E+02  0.1734E+05  0.2871E-13  0.1167E+02  0.1279E+03
  ------------------------------------------------------------------------------------------
           TOTALS:    0.5847E+07  0.1241E+09  0.4303E+06  0.1241E+09  0.2793E+10  0.1797E+04  0.2664E+08  0.7465E+08
