                                       - FLUX SUMMARY -
 L2-CPE V1.3            Kappa-distribution     
 Cartesian (LRAD) Algorithm
 
 
 Phenomenological Region  =>  Solar Wind at SolMax (IMP-8)
 
 
 
 Species  =>  Protons
 
 Positive X direction flux calculated.
 
 Minimum Energy =     0.0010 keV
 Maximum Energy =  1000.0000 keV
 
 Number of Energy Bins =    50
 
 50% Total Flux        =   0.6108E+03 (#/cm^2/sec)
 95% Total Flux        =   0.2967E+05 (#/cm^2/sec)
  5% Total Flux        =   0.6493E+01 (#/cm^2/sec)
  95% Total Flux       =   0.2967E+05 (#/cm^2/sec)
 Maximum Total Flux    =   0.5679E+07 (#/cm^2/sec)
 Minimum Total Flux    =   0.1387E-02 (#/cm^2/sec)
 Mean Total Flux       =   0.7281E+04 (#/cm^2/sec)
 Std. Dev. Total Flux  =   0.4593E+05 (#/cm^2/sec)
 
 
                        Differential Energy Flux Table  (#/cm^2/sec/keV)
 
    E1(keV)   E2(keV)    50%          95%         5%          95%       Maximum     Minimum     Mean       Std. Dev.
    0.0010    0.0013  0.4301E+04  0.1027E+06  0.8615E+02  0.1027E+06  0.4223E+08  0.2389E-01  0.2441E+05  0.1727E+06
    0.0013    0.0017  0.4184E+04  0.1004E+06  0.8311E+02  0.1004E+06  0.4103E+08  0.2298E-01  0.2384E+05  0.1684E+06
    0.0017    0.0023  0.4049E+04  0.9785E+05  0.7978E+02  0.9785E+05  0.3970E+08  0.2198E-01  0.2321E+05  0.1635E+06
    0.0023    0.0030  0.3899E+04  0.9494E+05  0.7622E+02  0.9494E+05  0.3824E+08  0.2089E-01  0.2252E+05  0.1581E+06
    0.0030    0.0040  0.3736E+04  0.9171E+05  0.7233E+02  0.9171E+05  0.3664E+08  0.1971E-01  0.2175E+05  0.1523E+06
    0.0040    0.0052  0.3562E+04  0.8834E+05  0.6800E+02  0.8834E+05  0.3489E+08  0.1845E-01  0.2091E+05  0.1458E+06
    0.0052    0.0069  0.3376E+04  0.8457E+05  0.6335E+02  0.8457E+05  0.3301E+08  0.1711E-01  0.2000E+05  0.1389E+06
    0.0069    0.0091  0.3175E+04  0.8046E+05  0.5848E+02  0.8046E+05  0.3099E+08  0.1570E-01  0.1901E+05  0.1314E+06
    0.0091    0.0120  0.2960E+04  0.7597E+05  0.5336E+02  0.7597E+05  0.2886E+08  0.1424E-01  0.1795E+05  0.1235E+06
    0.0120    0.0158  0.2731E+04  0.7114E+05  0.4829E+02  0.7114E+05  0.2661E+08  0.1275E-01  0.1683E+05  0.1151E+06
    0.0158    0.0209  0.2500E+04  0.6601E+05  0.4310E+02  0.6601E+05  0.2428E+08  0.1125E-01  0.1565E+05  0.1064E+06
    0.0209    0.0275  0.2261E+04  0.6085E+05  0.3779E+02  0.6085E+05  0.2190E+08  0.9760E-02  0.1442E+05  0.9743E+05
    0.0275    0.0363  0.2017E+04  0.5555E+05  0.3268E+02  0.5555E+05  0.1950E+08  0.8316E-02  0.1316E+05  0.8829E+05
    0.0363    0.0479  0.1773E+04  0.5003E+05  0.2771E+02  0.5003E+05  0.1712E+08  0.6944E-02  0.1188E+05  0.7912E+05
    0.0479    0.0631  0.1538E+04  0.4456E+05  0.2298E+02  0.4456E+05  0.1479E+08  0.5670E-02  0.1060E+05  0.7007E+05
    0.0631    0.0832  0.1310E+04  0.3913E+05  0.1873E+02  0.3913E+05  0.1257E+08  0.4518E-02  0.9343E+04  0.6128E+05
    0.0832    0.1096  0.1096E+04  0.3399E+05  0.1491E+02  0.3399E+05  0.1049E+08  0.3505E-02  0.8123E+04  0.5289E+05
    0.1096    0.1445  0.9003E+03  0.2914E+05  0.1156E+02  0.2914E+05  0.8586E+07  0.2557E-02  0.6962E+04  0.4501E+05
    0.1445    0.1905  0.7234E+03  0.2448E+05  0.8698E+01  0.2448E+05  0.6883E+07  0.1805E-02  0.5878E+04  0.3776E+05
    0.1905    0.2512  0.5693E+03  0.2018E+05  0.6350E+01  0.2018E+05  0.5399E+07  0.1230E-02  0.4884E+04  0.3122E+05
    0.2512    0.3311  0.4376E+03  0.1651E+05  0.4507E+01  0.1651E+05  0.4140E+07  0.8085E-03  0.3992E+04  0.2542E+05
    0.3311    0.4365  0.3274E+03  0.1327E+05  0.3095E+01  0.1327E+05  0.3101E+07  0.5117E-03  0.3208E+04  0.2039E+05
    0.4365    0.5754  0.2390E+03  0.1045E+05  0.2069E+01  0.1045E+05  0.2267E+07  0.2848E-03  0.2533E+04  0.1611E+05
    0.5754    0.7586  0.1701E+03  0.8027E+04  0.1329E+01  0.8027E+04  0.1618E+07  0.1451E-03  0.1966E+04  0.1253E+05
    0.7586    1.0000  0.1183E+03  0.6117E+04  0.8238E+00  0.6117E+04  0.1127E+07  0.7068E-04  0.1499E+04  0.9594E+04
    1.0000    1.3183  0.7999E+02  0.4579E+04  0.4937E+00  0.4579E+04  0.7664E+06  0.3297E-04  0.1123E+04  0.7238E+04
    1.3183    1.7378  0.5261E+02  0.3353E+04  0.2856E+00  0.3353E+04  0.5089E+06  0.1474E-04  0.8265E+03  0.5380E+04
    1.7378    2.2909  0.3368E+02  0.2427E+04  0.1594E+00  0.2427E+04  0.3546E+06  0.6325E-05  0.5983E+03  0.3942E+04
    2.2909    3.0200  0.2099E+02  0.1711E+04  0.8629E-01  0.1711E+04  0.2616E+06  0.2609E-05  0.4260E+03  0.2849E+04
    3.0200    3.9811  0.1275E+02  0.1190E+04  0.4487E-01  0.1190E+04  0.1892E+06  0.1037E-05  0.2987E+03  0.2033E+04
    3.9811    5.2481  0.7549E+01  0.8194E+03  0.2289E-01  0.8194E+03  0.1341E+06  0.3978E-06  0.2064E+03  0.1432E+04
    5.2481    6.9183  0.4371E+01  0.5562E+03  0.1123E-01  0.5562E+03  0.9358E+05  0.1477E-06  0.1406E+03  0.9975E+03
    6.9183    9.1201  0.2481E+01  0.3691E+03  0.5275E-02  0.3691E+03  0.6657E+05  0.5315E-07  0.9460E+02  0.6873E+03
    9.1201   12.0226  0.1381E+01  0.2439E+03  0.2461E-02  0.2439E+03  0.4660E+05  0.1860E-07  0.6291E+02  0.4688E+03
   12.0226   15.8489  0.7541E+00  0.1596E+03  0.1118E-02  0.1596E+03  0.3213E+05  0.6340E-08  0.4140E+02  0.3168E+03
   15.8489   20.8930  0.4037E+00  0.1027E+03  0.4947E-03  0.1027E+03  0.2184E+05  0.2111E-08  0.2699E+02  0.2123E+03
   20.8930   27.5423  0.2130E+00  0.6506E+02  0.2146E-03  0.6506E+02  0.1512E+05  0.6877E-09  0.1745E+02  0.1411E+03
   27.5423   36.3078  0.1107E+00  0.4123E+02  0.9185E-04  0.4123E+02  0.1039E+05  0.2197E-09  0.1120E+02  0.9314E+02
   36.3078   47.8630  0.5679E-01  0.2581E+02  0.3823E-04  0.2581E+02  0.7065E+04  0.6900E-10  0.7149E+01  0.6108E+02
   47.8630   63.0957  0.2876E-01  0.1599E+02  0.1568E-04  0.1599E+02  0.4755E+04  0.2133E-10  0.4538E+01  0.3982E+02
   63.0957   83.1764  0.1444E-01  0.9880E+01  0.6303E-05  0.9880E+01  0.3171E+04  0.6501E-11  0.2868E+01  0.2583E+02
   83.1764  109.6478  0.7183E-02  0.6109E+01  0.2515E-05  0.6109E+01  0.2097E+04  0.1957E-11  0.1806E+01  0.1668E+02
  109.6478  144.5440  0.3534E-02  0.3746E+01  0.9885E-06  0.3746E+01  0.1376E+04  0.5825E-12  0.1134E+01  0.1073E+02
  144.5440  190.5461  0.1723E-02  0.2281E+01  0.3871E-06  0.2281E+01  0.8969E+03  0.1717E-12  0.7101E+00  0.6875E+01
  190.5461  251.1887  0.8351E-03  0.1384E+01  0.1505E-06  0.1384E+01  0.5825E+03  0.5017E-13  0.4440E+00  0.4393E+01
  251.1887  331.1311  0.4042E-03  0.8352E+00  0.5757E-07  0.8352E+00  0.3781E+03  0.1455E-13  0.2773E+00  0.2801E+01
  331.1311  436.5159  0.1932E-03  0.5039E+00  0.2181E-07  0.5039E+00  0.2443E+03  0.4190E-14  0.1730E+00  0.1781E+01
  436.5159  575.4399  0.9197E-04  0.3021E+00  0.8198E-08  0.3021E+00  0.1572E+03  0.1200E-14  0.1079E+00  0.1131E+01
  575.4399  758.5778  0.4360E-04  0.1804E+00  0.3082E-08  0.1804E+00  0.1008E+03  0.3416E-15  0.6724E-01  0.7173E+00
  758.5778 1000.0000  0.2064E-04  0.1074E+00  0.1156E-08  0.1074E+00  0.6446E+02  0.9685E-16  0.4191E-01  0.4543E+00
 
 
                       Particle Flux per Energy Bin Table  (#/cm^2/sec)
 
    E1(keV)   E2(keV)    50%          95%         5%          95%       Maximum     Minimum     Mean       Std. Dev.
    0.0010    0.0013  0.1369E+01  0.3268E+02  0.2742E-01  0.3268E+02  0.1344E+05  0.7604E-05  0.7769E+01  0.5498E+02
    0.0013    0.0017  0.1755E+01  0.4212E+02  0.3487E-01  0.4212E+02  0.1721E+05  0.9641E-05  0.1000E+02  0.7064E+02
    0.0017    0.0023  0.2239E+01  0.5412E+02  0.4412E-01  0.5412E+02  0.2196E+05  0.1215E-04  0.1284E+02  0.9043E+02
    0.0023    0.0030  0.2842E+01  0.6922E+02  0.5557E-01  0.6922E+02  0.2788E+05  0.1523E-04  0.1642E+02  0.1153E+03
    0.0030    0.0040  0.3591E+01  0.8814E+02  0.6952E-01  0.8814E+02  0.3521E+05  0.1894E-04  0.2091E+02  0.1463E+03
    0.0040    0.0052  0.4514E+01  0.1119E+03  0.8615E-01  0.1119E+03  0.4421E+05  0.2337E-04  0.2649E+02  0.1848E+03
    0.0052    0.0069  0.5638E+01  0.1413E+03  0.1058E+00  0.1413E+03  0.5513E+05  0.2857E-04  0.3340E+02  0.2320E+03
    0.0069    0.0091  0.6990E+01  0.1772E+03  0.1288E+00  0.1772E+03  0.6824E+05  0.3457E-04  0.4186E+02  0.2894E+03
    0.0091    0.0120  0.8591E+01  0.2205E+03  0.1549E+00  0.2205E+03  0.8375E+05  0.4134E-04  0.5211E+02  0.3585E+03
    0.0120    0.0158  0.1045E+02  0.2722E+03  0.1848E+00  0.2722E+03  0.1018E+06  0.4878E-04  0.6440E+02  0.4406E+03
    0.0158    0.0209  0.1261E+02  0.3330E+03  0.2174E+00  0.3330E+03  0.1225E+06  0.5673E-04  0.7894E+02  0.5368E+03
    0.0209    0.0275  0.1503E+02  0.4046E+03  0.2513E+00  0.4046E+03  0.1456E+06  0.6490E-04  0.9590E+02  0.6478E+03
    0.0275    0.0363  0.1768E+02  0.4869E+03  0.2865E+00  0.4869E+03  0.1709E+06  0.7289E-04  0.1154E+03  0.7739E+03
    0.0363    0.0479  0.2048E+02  0.5782E+03  0.3202E+00  0.5782E+03  0.1978E+06  0.8024E-04  0.1373E+03  0.9143E+03
    0.0479    0.0631  0.2343E+02  0.6788E+03  0.3501E+00  0.6788E+03  0.2254E+06  0.8637E-04  0.1615E+03  0.1067E+04
    0.0631    0.0832  0.2630E+02  0.7858E+03  0.3761E+00  0.7858E+03  0.2525E+06  0.9072E-04  0.1876E+03  0.1231E+04
    0.0832    0.1096  0.2901E+02  0.8998E+03  0.3946E+00  0.8998E+03  0.2777E+06  0.9278E-04  0.2150E+03  0.1400E+04
    0.1096    0.1445  0.3142E+02  0.1017E+04  0.4036E+00  0.1017E+04  0.2996E+06  0.8923E-04  0.2430E+03  0.1571E+04
    0.1445    0.1905  0.3328E+02  0.1126E+04  0.4001E+00  0.1126E+04  0.3166E+06  0.8302E-04  0.2704E+03  0.1737E+04
    0.1905    0.2512  0.3452E+02  0.1224E+04  0.3851E+00  0.1224E+04  0.3274E+06  0.7460E-04  0.2962E+03  0.1893E+04
    0.2512    0.3311  0.3498E+02  0.1320E+04  0.3603E+00  0.1320E+04  0.3310E+06  0.6464E-04  0.3191E+03  0.2033E+04
    0.3311    0.4365  0.3450E+02  0.1398E+04  0.3262E+00  0.1398E+04  0.3268E+06  0.5392E-04  0.3381E+03  0.2149E+04
    0.4365    0.5754  0.3320E+02  0.1451E+04  0.2874E+00  0.1451E+04  0.3150E+06  0.3957E-04  0.3520E+03  0.2237E+04
    0.5754    0.7586  0.3116E+02  0.1470E+04  0.2435E+00  0.1470E+04  0.2964E+06  0.2657E-04  0.3600E+03  0.2294E+04
    0.7586    1.0000  0.2855E+02  0.1477E+04  0.1989E+00  0.1477E+04  0.2721E+06  0.1706E-04  0.3618E+03  0.2316E+04
    1.0000    1.3183  0.2546E+02  0.1457E+04  0.1571E+00  0.1457E+04  0.2439E+06  0.1049E-04  0.3573E+03  0.2303E+04
    1.3183    1.7378  0.2207E+02  0.1407E+04  0.1198E+00  0.1407E+04  0.2135E+06  0.6184E-05  0.3468E+03  0.2257E+04
    1.7378    2.2909  0.1863E+02  0.1342E+04  0.8816E-01  0.1342E+04  0.1961E+06  0.3498E-05  0.3309E+03  0.2180E+04
    2.2909    3.0200  0.1531E+02  0.1248E+04  0.6291E-01  0.1248E+04  0.1908E+06  0.1903E-05  0.3106E+03  0.2077E+04
    3.0200    3.9811  0.1226E+02  0.1144E+04  0.4313E-01  0.1144E+04  0.1819E+06  0.9967E-06  0.2871E+03  0.1954E+04
    3.9811    5.2481  0.9565E+01  0.1038E+04  0.2900E-01  0.1038E+04  0.1699E+06  0.5040E-06  0.2615E+03  0.1815E+04
    5.2481    6.9183  0.7301E+01  0.9289E+03  0.1876E-01  0.9289E+03  0.1563E+06  0.2466E-06  0.2349E+03  0.1666E+04
    6.9183    9.1201  0.5463E+01  0.8127E+03  0.1161E-01  0.8127E+03  0.1466E+06  0.1170E-06  0.2083E+03  0.1513E+04
    9.1201   12.0226  0.4009E+01  0.7080E+03  0.7142E-02  0.7080E+03  0.1353E+06  0.5398E-07  0.1826E+03  0.1361E+04
   12.0226   15.8489  0.2885E+01  0.6106E+03  0.4276E-02  0.6106E+03  0.1229E+06  0.2426E-07  0.1584E+03  0.1212E+04
   15.8489   20.8930  0.2036E+01  0.5178E+03  0.2495E-02  0.5178E+03  0.1102E+06  0.1065E-07  0.1361E+03  0.1071E+04
   20.8930   27.5423  0.1416E+01  0.4326E+03  0.1427E-02  0.4326E+03  0.1005E+06  0.4573E-08  0.1161E+03  0.9383E+03
   27.5423   36.3078  0.9705E+00  0.3614E+03  0.8051E-03  0.3614E+03  0.9108E+05  0.1926E-08  0.9821E+02  0.8164E+03
   36.3078   47.8630  0.6562E+00  0.2982E+03  0.4417E-03  0.2982E+03  0.8164E+05  0.7973E-09  0.8261E+02  0.7057E+03
   47.8630   63.0957  0.4380E+00  0.2436E+03  0.2389E-03  0.2436E+03  0.7243E+05  0.3249E-09  0.6912E+02  0.6066E+03
   63.0957   83.1764  0.2899E+00  0.1984E+03  0.1266E-03  0.1984E+03  0.6368E+05  0.1305E-09  0.5758E+02  0.5186E+03
   83.1764  109.6478  0.1901E+00  0.1617E+03  0.6658E-04  0.1617E+03  0.5551E+05  0.5180E-10  0.4780E+02  0.4415E+03
  109.6478  144.5440  0.1233E+00  0.1307E+03  0.3450E-04  0.1307E+03  0.4802E+05  0.2033E-10  0.3956E+02  0.3743E+03
  144.5440  190.5461  0.7926E-01  0.1049E+03  0.1781E-04  0.1049E+03  0.4126E+05  0.7898E-11  0.3266E+02  0.3162E+03
  190.5461  251.1887  0.5065E-01  0.8391E+02  0.9127E-05  0.8391E+02  0.3533E+05  0.3042E-11  0.2692E+02  0.2664E+03
  251.1887  331.1311  0.3231E-01  0.6677E+02  0.4603E-05  0.6677E+02  0.3022E+05  0.1163E-11  0.2216E+02  0.2239E+03
  331.1311  436.5159  0.2036E-01  0.5311E+02  0.2299E-05  0.5311E+02  0.2574E+05  0.4415E-12  0.1823E+02  0.1877E+03
  436.5159  575.4399  0.1278E-01  0.4197E+02  0.1139E-05  0.4197E+02  0.2184E+05  0.1666E-12  0.1498E+02  0.1572E+03
  575.4399  758.5778  0.7985E-02  0.3305E+02  0.5643E-06  0.3305E+02  0.1846E+05  0.6256E-13  0.1231E+02  0.1314E+03
  758.5778 1000.0000  0.4984E-02  0.2593E+02  0.2792E-06  0.2593E+02  0.1556E+05  0.2338E-13  0.1012E+02  0.1097E+03
  ------------------------------------------------------------------------------------------
           TOTALS:    0.5834E+03  0.2931E+05  0.6241E+01  0.2931E+05  0.6915E+07  0.1257E-02  0.7281E+04  0.4999E+05
