                                       - FLUX SUMMARY -
 L2-CPE V1.3            Kappa-distribution     
 Cartesian (LRAD) Algorithm
 
 
 Phenomenological Region  =>  Solar Wind at SolMax (IMP-8)
 
 
 
 Species  =>  Protons
 
 Negative Z direction flux calculated.
 
 Minimum Energy =     0.0010 keV
 Maximum Energy =  1000.0000 keV
 
 Number of Energy Bins =    50
 
 50% Total Flux        =   0.5827E+07 (#/cm^2/sec)
 95% Total Flux        =   0.6566E+08 (#/cm^2/sec)
  5% Total Flux        =   0.2474E+06 (#/cm^2/sec)
  95% Total Flux       =   0.6566E+08 (#/cm^2/sec)
 Maximum Total Flux    =   0.7018E+09 (#/cm^2/sec)
 Minimum Total Flux    =   0.5350E+03 (#/cm^2/sec)
 Mean Total Flux       =   0.1717E+08 (#/cm^2/sec)
 Std. Dev. Total Flux  =   0.3266E+08 (#/cm^2/sec)
 
 
                        Differential Energy Flux Table  (#/cm^2/sec/keV)
 
    E1(keV)   E2(keV)    50%          95%         5%          95%       Maximum     Minimum     Mean       Std. Dev.
    0.0010    0.0013  0.9608E+09  0.7603E+10  0.5073E+08  0.7603E+10  0.5317E+11  0.1073E+06  0.2096E+10  0.2980E+10
    0.0013    0.0017  0.8348E+09  0.6863E+10  0.4204E+08  0.6863E+10  0.5307E+11  0.8998E+05  0.1923E+10  0.2843E+10
    0.0017    0.0023  0.7068E+09  0.6138E+10  0.3387E+08  0.6138E+10  0.4433E+11  0.7391E+05  0.1732E+10  0.2681E+10
    0.0023    0.0030  0.5824E+09  0.5486E+10  0.2641E+08  0.5486E+10  0.4898E+11  0.5935E+05  0.1523E+10  0.2489E+10
    0.0030    0.0040  0.4731E+09  0.4854E+10  0.2017E+08  0.4854E+10  0.9792E+11  0.4651E+05  0.1300E+10  0.2275E+10
    0.0040    0.0052  0.3707E+09  0.4081E+10  0.1504E+08  0.4081E+10  0.4327E+11  0.3551E+05  0.1072E+10  0.1984E+10
    0.0052    0.0069  0.2730E+09  0.3289E+10  0.1085E+08  0.3289E+10  0.4133E+11  0.2637E+05  0.8492E+09  0.1670E+10
    0.0069    0.0091  0.1917E+09  0.2638E+10  0.7575E+07  0.2638E+10  0.4049E+11  0.1902E+05  0.6467E+09  0.1351E+10
    0.0091    0.0120  0.1288E+09  0.2002E+10  0.5124E+07  0.2002E+10  0.3504E+11  0.1330E+05  0.4762E+09  0.1062E+10
    0.0120    0.0158  0.8280E+08  0.1390E+10  0.3355E+07  0.1390E+10  0.2542E+11  0.9017E+04  0.3427E+09  0.8377E+09
    0.0158    0.0209  0.5186E+08  0.8925E+09  0.2115E+07  0.8925E+09  0.1640E+11  0.5916E+04  0.2420E+09  0.6856E+09
    0.0209    0.0275  0.3144E+08  0.5374E+09  0.1290E+07  0.5374E+09  0.1287E+11  0.3748E+04  0.1623E+09  0.5263E+09
    0.0275    0.0363  0.1839E+08  0.3190E+09  0.7576E+06  0.3190E+09  0.9216E+10  0.2117E+04  0.1010E+09  0.3607E+09
    0.0363    0.0479  0.1019E+08  0.1975E+09  0.4256E+06  0.1975E+09  0.7790E+10  0.1152E+04  0.5824E+08  0.2189E+09
    0.0479    0.0631  0.5563E+07  0.1128E+09  0.2287E+06  0.1128E+09  0.5771E+10  0.6044E+03  0.3175E+08  0.1238E+09
    0.0631    0.0832  0.2978E+07  0.6153E+08  0.1180E+06  0.6153E+08  0.3671E+10  0.3060E+03  0.1687E+08  0.7039E+08
    0.0832    0.1096  0.1561E+07  0.3153E+08  0.5785E+05  0.3153E+08  0.2569E+10  0.1221E+03  0.8941E+07  0.4174E+08
    0.1096    0.1445  0.8057E+06  0.1593E+08  0.2772E+05  0.1593E+08  0.1671E+10  0.3910E+02  0.4770E+07  0.2513E+08
    0.1445    0.1905  0.4061E+06  0.8022E+07  0.1273E+05  0.8022E+07  0.9858E+09  0.1228E+02  0.2561E+07  0.1474E+08
    0.1905    0.2512  0.2027E+06  0.4046E+07  0.5719E+04  0.4046E+07  0.5275E+09  0.3790E+01  0.1379E+07  0.8324E+07
    0.2512    0.3311  0.1004E+06  0.2036E+07  0.2484E+04  0.2036E+07  0.2945E+09  0.1153E+01  0.7434E+06  0.4628E+07
    0.3311    0.4365  0.4925E+05  0.1023E+07  0.1067E+04  0.1023E+07  0.2004E+09  0.3459E+00  0.4006E+06  0.2592E+07
    0.4365    0.5754  0.2388E+05  0.5208E+06  0.4490E+03  0.5208E+06  0.1291E+09  0.1026E+00  0.2154E+06  0.1466E+07
    0.5754    0.7586  0.1152E+05  0.2732E+06  0.1841E+03  0.2732E+06  0.7876E+08  0.3015E-01  0.1153E+06  0.8262E+06
    0.7586    1.0000  0.5507E+04  0.1469E+06  0.7459E+02  0.1469E+06  0.4567E+08  0.8778E-02  0.6147E+05  0.4595E+06
    1.0000    1.3183  0.2619E+04  0.7995E+05  0.2974E+02  0.7995E+05  0.2527E+08  0.2536E-02  0.3262E+05  0.2514E+06
    1.3183    1.7378  0.1235E+04  0.4307E+05  0.1177E+02  0.4307E+05  0.1341E+08  0.7281E-03  0.1728E+05  0.1358E+06
    1.7378    2.2909  0.5792E+03  0.2372E+05  0.4592E+01  0.2372E+05  0.6864E+07  0.2078E-03  0.9151E+04  0.7272E+05
    2.2909    3.0200  0.2710E+03  0.1327E+05  0.1775E+01  0.1327E+05  0.3408E+07  0.5901E-04  0.4861E+04  0.3887E+05
    3.0200    3.9811  0.1270E+03  0.7409E+04  0.6804E+00  0.7409E+04  0.1650E+07  0.1669E-04  0.2596E+04  0.2084E+05
    3.9811    5.2481  0.5917E+02  0.4148E+04  0.2595E+00  0.4148E+04  0.8000E+06  0.4700E-05  0.1397E+04  0.1126E+05
    5.2481    6.9183  0.2755E+02  0.2319E+04  0.9787E-01  0.2319E+04  0.4375E+06  0.1319E-05  0.7580E+03  0.6147E+04
    6.9183    9.1201  0.1280E+02  0.1306E+04  0.3730E-01  0.1306E+04  0.2393E+06  0.3693E-06  0.4153E+03  0.3396E+04
    9.1201   12.0226  0.5913E+01  0.7436E+03  0.1402E-01  0.7436E+03  0.1379E+06  0.1031E-06  0.2298E+03  0.1900E+04
   12.0226   15.8489  0.2735E+01  0.4215E+03  0.5247E-02  0.4215E+03  0.8447E+05  0.2873E-07  0.1284E+03  0.1077E+04
   15.8489   20.8930  0.1264E+01  0.2417E+03  0.1941E-02  0.2417E+03  0.5172E+05  0.7991E-08  0.7238E+02  0.6172E+03
   20.8930   27.5423  0.5835E+00  0.1398E+03  0.7224E-03  0.1398E+03  0.3269E+05  0.2219E-08  0.4118E+02  0.3576E+03
   27.5423   36.3078  0.2683E+00  0.8091E+02  0.2671E-03  0.8091E+02  0.2060E+05  0.6151E-09  0.2363E+02  0.2092E+03
   36.3078   47.8630  0.1237E+00  0.4651E+02  0.9874E-04  0.4651E+02  0.1295E+05  0.1703E-09  0.1367E+02  0.1235E+03
   47.8630   63.0957  0.5703E-01  0.2672E+02  0.3595E-04  0.2672E+02  0.8126E+04  0.4711E-10  0.7961E+01  0.7343E+02
   63.0957   83.1764  0.2625E-01  0.1546E+02  0.1314E-04  0.1546E+02  0.5088E+04  0.1302E-10  0.4668E+01  0.4396E+02
   83.1764  109.6478  0.1213E-01  0.9011E+01  0.4817E-05  0.9011E+01  0.3181E+04  0.3594E-11  0.2754E+01  0.2647E+02
  109.6478  144.5440  0.5585E-02  0.5291E+01  0.1749E-05  0.5291E+01  0.1985E+04  0.9916E-12  0.1634E+01  0.1602E+02
  144.5440  190.5461  0.2574E-02  0.3080E+01  0.6323E-06  0.3080E+01  0.1238E+04  0.2734E-12  0.9748E+00  0.9741E+01
  190.5461  251.1887  0.1187E-02  0.1795E+01  0.2317E-06  0.1795E+01  0.7736E+03  0.7535E-13  0.5841E+00  0.5947E+01
  251.1887  331.1311  0.5477E-03  0.1050E+01  0.8417E-07  0.1050E+01  0.4847E+03  0.2075E-13  0.3516E+00  0.3643E+01
  331.1311  436.5159  0.2537E-03  0.6136E+00  0.3036E-07  0.6136E+00  0.3036E+03  0.5714E-14  0.2125E+00  0.2239E+01
  436.5159  575.4399  0.1167E-03  0.3588E+00  0.1097E-07  0.3588E+00  0.1901E+03  0.1573E-14  0.1289E+00  0.1379E+01
  575.4399  758.5778  0.5359E-04  0.2092E+00  0.3979E-08  0.2092E+00  0.1191E+03  0.4328E-15  0.7844E-01  0.8522E+00
  758.5778 1000.0000  0.2465E-04  0.1222E+00  0.1444E-08  0.1222E+00  0.7455E+02  0.1190E-15  0.4790E-01  0.5277E+00
 
 
                       Particle Flux per Energy Bin Table  (#/cm^2/sec)
 
    E1(keV)   E2(keV)    50%          95%         5%          95%       Maximum     Minimum     Mean       Std. Dev.
    0.0010    0.0013  0.3058E+06  0.2420E+07  0.1614E+05  0.2420E+07  0.1692E+08  0.3414E+02  0.6670E+06  0.9484E+06
    0.0013    0.0017  0.3502E+06  0.2879E+07  0.1764E+05  0.2879E+07  0.2226E+08  0.3775E+02  0.8070E+06  0.1193E+07
    0.0017    0.0023  0.3909E+06  0.3395E+07  0.1873E+05  0.3395E+07  0.2452E+08  0.4087E+02  0.9578E+06  0.1483E+07
    0.0023    0.0030  0.4246E+06  0.3999E+07  0.1926E+05  0.3999E+07  0.3571E+08  0.4327E+02  0.1110E+07  0.1815E+07
    0.0030    0.0040  0.4547E+06  0.4665E+07  0.1939E+05  0.4665E+07  0.9411E+08  0.4470E+02  0.1250E+07  0.2187E+07
    0.0040    0.0052  0.4696E+06  0.5171E+07  0.1906E+05  0.5171E+07  0.5482E+08  0.4499E+02  0.1358E+07  0.2514E+07
    0.0052    0.0069  0.4559E+06  0.5494E+07  0.1812E+05  0.5494E+07  0.6903E+08  0.4404E+02  0.1418E+07  0.2789E+07
    0.0069    0.0091  0.4220E+06  0.5807E+07  0.1668E+05  0.5807E+07  0.8915E+08  0.4188E+02  0.1424E+07  0.2974E+07
    0.0091    0.0120  0.3740E+06  0.5812E+07  0.1487E+05  0.5812E+07  0.1017E+09  0.3862E+02  0.1382E+07  0.3084E+07
    0.0120    0.0158  0.3168E+06  0.5317E+07  0.1284E+05  0.5317E+07  0.9727E+08  0.3450E+02  0.1311E+07  0.3205E+07
    0.0158    0.0209  0.2616E+06  0.4502E+07  0.1067E+05  0.4502E+07  0.8274E+08  0.2984E+02  0.1221E+07  0.3458E+07
    0.0209    0.0275  0.2090E+06  0.3573E+07  0.8578E+04  0.3573E+07  0.8557E+08  0.2492E+02  0.1079E+07  0.3500E+07
    0.0275    0.0363  0.1612E+06  0.2797E+07  0.6641E+04  0.2797E+07  0.8078E+08  0.1856E+02  0.8855E+06  0.3162E+07
    0.0363    0.0479  0.1178E+06  0.2282E+07  0.4918E+04  0.2282E+07  0.9001E+08  0.1331E+02  0.6730E+06  0.2530E+07
    0.0479    0.0631  0.8474E+05  0.1718E+07  0.3484E+04  0.1718E+07  0.8790E+08  0.9207E+01  0.4836E+06  0.1886E+07
    0.0631    0.0832  0.5979E+05  0.1236E+07  0.2369E+04  0.1236E+07  0.7371E+08  0.6145E+01  0.3387E+06  0.1413E+07
    0.0832    0.1096  0.4133E+05  0.8347E+06  0.1531E+04  0.8347E+06  0.6802E+08  0.3232E+01  0.2367E+06  0.1105E+07
    0.1096    0.1445  0.2812E+05  0.5558E+06  0.9674E+03  0.5558E+06  0.5832E+08  0.1364E+01  0.1665E+06  0.8770E+06
    0.1445    0.1905  0.1868E+05  0.3690E+06  0.5856E+03  0.3690E+06  0.4535E+08  0.5648E+00  0.1178E+06  0.6779E+06
    0.1905    0.2512  0.1229E+05  0.2454E+06  0.3468E+03  0.2454E+06  0.3199E+08  0.2299E+00  0.8363E+05  0.5048E+06
    0.2512    0.3311  0.8025E+04  0.1628E+06  0.1985E+03  0.1628E+06  0.2354E+08  0.9214E-01  0.5943E+05  0.3699E+06
    0.3311    0.4365  0.5190E+04  0.1078E+06  0.1125E+03  0.1078E+06  0.2112E+08  0.3646E-01  0.4221E+05  0.2732E+06
    0.4365    0.5754  0.3317E+04  0.7236E+05  0.6237E+02  0.7236E+05  0.1793E+08  0.1426E-01  0.2992E+05  0.2036E+06
    0.5754    0.7586  0.2110E+04  0.5003E+05  0.3372E+02  0.5003E+05  0.1442E+08  0.5521E-02  0.2112E+05  0.1513E+06
    0.7586    1.0000  0.1330E+04  0.3546E+05  0.1801E+02  0.3546E+05  0.1103E+08  0.2119E-02  0.1484E+05  0.1109E+06
    1.0000    1.3183  0.8334E+03  0.2544E+05  0.9464E+01  0.2544E+05  0.8042E+07  0.8072E-03  0.1038E+05  0.8002E+05
    1.3183    1.7378  0.5182E+03  0.1807E+05  0.4938E+01  0.1807E+05  0.5626E+07  0.3055E-03  0.7248E+04  0.5696E+05
    1.7378    2.2909  0.3203E+03  0.1312E+05  0.2540E+01  0.1312E+05  0.3796E+07  0.1149E-03  0.5061E+04  0.4022E+05
    2.2909    3.0200  0.1976E+03  0.9674E+04  0.1294E+01  0.9674E+04  0.2485E+07  0.4303E-04  0.3544E+04  0.2834E+05
    3.0200    3.9811  0.1221E+03  0.7121E+04  0.6539E+00  0.7121E+04  0.1586E+07  0.1604E-04  0.2495E+04  0.2003E+05
    3.9811    5.2481  0.7496E+02  0.5256E+04  0.3288E+00  0.5256E+04  0.1014E+07  0.5955E-05  0.1770E+04  0.1427E+05
    5.2481    6.9183  0.4601E+02  0.3872E+04  0.1635E+00  0.3872E+04  0.7307E+06  0.2204E-05  0.1266E+04  0.1027E+05
    6.9183    9.1201  0.2819E+02  0.2876E+04  0.8212E-01  0.2876E+04  0.5269E+06  0.8132E-06  0.9144E+03  0.7478E+04
    9.1201   12.0226  0.1716E+02  0.2158E+04  0.4070E-01  0.2158E+04  0.4002E+06  0.2993E-06  0.6669E+03  0.5516E+04
   12.0226   15.8489  0.1046E+02  0.1613E+04  0.2008E-01  0.1613E+04  0.3232E+06  0.1099E-06  0.4911E+03  0.4120E+04
   15.8489   20.8930  0.6378E+01  0.1219E+04  0.9789E-02  0.1219E+04  0.2609E+06  0.4031E-07  0.3651E+03  0.3113E+04
   20.8930   27.5423  0.3880E+01  0.9298E+03  0.4804E-02  0.9298E+03  0.2174E+06  0.1475E-07  0.2738E+03  0.2378E+04
   27.5423   36.3078  0.2352E+01  0.7092E+03  0.2341E-02  0.7092E+03  0.1806E+06  0.5392E-08  0.2071E+03  0.1834E+04
   36.3078   47.8630  0.1429E+01  0.5375E+03  0.1141E-02  0.5375E+03  0.1497E+06  0.1968E-08  0.1579E+03  0.1427E+04
   47.8630   63.0957  0.8688E+00  0.4070E+03  0.5477E-03  0.4070E+03  0.1238E+06  0.7176E-09  0.1213E+03  0.1119E+04
   63.0957   83.1764  0.5271E+00  0.3105E+03  0.2639E-03  0.3105E+03  0.1022E+06  0.2614E-09  0.9374E+02  0.8827E+03
   83.1764  109.6478  0.3211E+00  0.2385E+03  0.1275E-03  0.2385E+03  0.8419E+05  0.9514E-10  0.7291E+02  0.7007E+03
  109.6478  144.5440  0.1949E+00  0.1846E+03  0.6104E-04  0.1846E+03  0.6928E+05  0.3460E-10  0.5703E+02  0.5591E+03
  144.5440  190.5461  0.1184E+00  0.1417E+03  0.2909E-04  0.1417E+03  0.5694E+05  0.1258E-10  0.4484E+02  0.4481E+03
  190.5461  251.1887  0.7199E-01  0.1089E+03  0.1405E-04  0.1089E+03  0.4691E+05  0.4569E-11  0.3542E+02  0.3606E+03
  251.1887  331.1311  0.4378E-01  0.8393E+02  0.6729E-05  0.8393E+02  0.3875E+05  0.1659E-11  0.2811E+02  0.2912E+03
  331.1311  436.5159  0.2674E-01  0.6467E+02  0.3200E-05  0.6467E+02  0.3200E+05  0.6022E-12  0.2239E+02  0.2359E+03
  436.5159  575.4399  0.1622E-01  0.4985E+02  0.1524E-05  0.4985E+02  0.2642E+05  0.2185E-12  0.1790E+02  0.1916E+03
  575.4399  758.5778  0.9815E-02  0.3832E+02  0.7288E-06  0.3832E+02  0.2181E+05  0.7926E-13  0.1437E+02  0.1561E+03
  758.5778 1000.0000  0.5952E-02  0.2951E+02  0.3486E-06  0.2951E+02  0.1800E+05  0.2874E-13  0.1156E+02  0.1274E+03
  ------------------------------------------------------------------------------------------
           TOTALS:    0.4981E+07  0.6359E+08  0.2133E+06  0.6359E+08  0.1424E+10  0.5123E+03  0.1717E+08  0.4269E+08
