                                       - FLUX SUMMARY -
 L2-CPE V1.3            Kappa-distribution     
 Cartesian (LRAD) Algorithm
 
 
 Phenomenological Region  =>  Solar Wind at SolMax (IMP-8)
 
 
 
 Species  =>  Protons
 
 Positive X direction flux calculated.
 
 Minimum Energy =     0.0010 keV
 Maximum Energy = 10000.0000 keV
 
 Number of Energy Bins =    28
 
 50% Total Flux        =   0.6109E+03 (#/cm^2/sec)
 95% Total Flux        =   0.2986E+05 (#/cm^2/sec)
  5% Total Flux        =   0.6493E+01 (#/cm^2/sec)
  67% Total Flux       =   0.1896E+04 (#/cm^2/sec)
 Maximum Total Flux    =   0.5679E+07 (#/cm^2/sec)
 Minimum Total Flux    =   0.1387E-02 (#/cm^2/sec)
 Mean Total Flux       =   0.7319E+04 (#/cm^2/sec)
 Std. Dev. Total Flux  =   0.4616E+05 (#/cm^2/sec)
 
 
                        Differential Energy Flux Table  (#/cm^2/sec/keV)
 
    E1(keV)   E2(keV)    50%          95%         5%          67%       Maximum     Minimum     Mean       Std. Dev.
    0.0010    0.0018  0.4228E+04  0.1013E+06  0.8432E+02  0.1078E+05  0.4149E+08  0.2333E-01  0.2406E+05  0.1700E+06
    0.0018    0.0032  0.3944E+04  0.9578E+05  0.7729E+02  0.1009E+05  0.3867E+08  0.2121E-01  0.2272E+05  0.1597E+06
    0.0032    0.0056  0.3597E+04  0.8902E+05  0.6892E+02  0.9277E+04  0.3526E+08  0.1871E-01  0.2109E+05  0.1472E+06
    0.0056    0.0100  0.3200E+04  0.8097E+05  0.5914E+02  0.8297E+04  0.3125E+08  0.1588E-01  0.1914E+05  0.1324E+06
    0.0100    0.0178  0.2742E+04  0.7134E+05  0.4856E+02  0.7171E+04  0.2671E+08  0.1282E-01  0.1688E+05  0.1155E+06
    0.0178    0.0316  0.2252E+04  0.6065E+05  0.3763E+02  0.5959E+04  0.2182E+08  0.9715E-02  0.1437E+05  0.9709E+05
    0.0316    0.0562  0.1746E+04  0.4935E+05  0.2715E+02  0.4692E+04  0.1685E+08  0.6801E-02  0.1173E+05  0.7806E+05
    0.0562    0.1000  0.1268E+04  0.3808E+05  0.1798E+02  0.3485E+04  0.1216E+08  0.4322E-02  0.9100E+04  0.5960E+05
    0.1000    0.1778  0.8508E+03  0.2786E+05  0.1078E+02  0.2404E+04  0.8108E+07  0.2350E-02  0.6656E+04  0.4296E+05
    0.1778    0.3162  0.5214E+03  0.1882E+05  0.5686E+01  0.1526E+04  0.4940E+07  0.1078E-02  0.4558E+04  0.2909E+05
    0.3162    0.5623  0.2876E+03  0.1200E+05  0.2641E+01  0.8831E+03  0.2727E+07  0.4226E-03  0.2905E+04  0.1846E+05
    0.5623    1.0000  0.1428E+03  0.7016E+04  0.1063E+01  0.4634E+03  0.1357E+07  0.1060E-03  0.1717E+04  0.1096E+05
    1.0000    1.7783  0.6332E+02  0.3824E+04  0.3668E+00  0.2177E+03  0.6088E+06  0.2191E-04  0.9409E+03  0.6094E+04
    1.7783    3.1623  0.2496E+02  0.1928E+04  0.1092E+00  0.9264E+02  0.2900E+06  0.3786E-05  0.4789E+03  0.3183E+04
    3.1623    5.6234  0.8762E+01  0.9028E+03  0.2810E-01  0.3574E+02  0.1467E+06  0.5546E-06  0.2276E+03  0.1569E+04
    5.6234   10.0000  0.2794E+01  0.3977E+03  0.6305E-02  0.1251E+02  0.7069E+05  0.7017E-07  0.1018E+03  0.7351E+03
   10.0000   17.7828  0.8167E+00  0.1673E+03  0.1265E-02  0.4048E+01  0.3331E+05  0.7825E-08  0.4326E+02  0.3295E+03
   17.7828   31.6228  0.2200E+00  0.6582E+02  0.2297E-03  0.1225E+01  0.1518E+05  0.7849E-09  0.1764E+02  0.1422E+03
   31.6228   56.2341  0.5576E-01  0.2516E+02  0.3830E-04  0.3482E+00  0.6881E+04  0.7220E-10  0.6967E+01  0.5949E+02
   56.2341  100.0000  0.1341E-01  0.9267E+01  0.5868E-05  0.9401E-01  0.2985E+04  0.6195E-11  0.2690E+01  0.2427E+02
  100.0000  177.8279  0.3090E-02  0.3361E+01  0.8546E-06  0.2441E-01  0.1249E+04  0.5030E-12  0.1023E+01  0.9707E+01
  177.8279  316.2278  0.6874E-03  0.1191E+01  0.1201E-06  0.6135E-02  0.5097E+03  0.3913E-13  0.3849E+00  0.3827E+01
  316.2278  562.3413  0.1495E-03  0.4141E+00  0.1598E-07  0.1510E-02  0.2056E+03  0.2944E-14  0.1441E+00  0.1493E+01
  562.3413 1000.0000  0.3152E-04  0.1416E+00  0.2079E-08  0.3623E-03  0.8160E+02  0.2159E-15  0.5386E-01  0.5782E+00
 1000.0000 1778.2794  0.6590E-05  0.4795E-01  0.2656E-09  0.8677E-04  0.3197E+02  0.1552E-16  0.2013E-01  0.2229E+00
 1778.2794 3162.2776  0.1354E-05  0.1634E-01  0.3325E-10  0.2047E-04  0.1240E+02  0.1100E-17  0.7536E-02  0.8573E-01
 3162.2776 5623.4131  0.2765E-06  0.5473E-02  0.4064E-11  0.4813E-05  0.4777E+01  0.6855E-19  0.2829E-02  0.3294E-01
 5623.4131 10000.0000  0.5583E-07  0.1828E-02  0.4980E-12  0.1122E-05  0.1829E+01  0.3413E-20  0.1066E-02  0.1266E-01
 
 
                       Particle Flux per Energy Bin Table  (#/cm^2/sec)
 
    E1(keV)   E2(keV)    50%          95%         5%          67%       Maximum     Minimum     Mean       Std. Dev.
    0.0010    0.0018  0.3291E+01  0.7883E+02  0.6563E-01  0.8387E+01  0.3229E+05  0.1815E-04  0.1873E+02  0.1323E+03
    0.0018    0.0032  0.5458E+01  0.1326E+03  0.1070E+00  0.1397E+02  0.5352E+05  0.2935E-04  0.3145E+02  0.2211E+03
    0.0032    0.0056  0.8853E+01  0.2191E+03  0.1696E+00  0.2283E+02  0.8678E+05  0.4606E-04  0.5190E+02  0.3623E+03
    0.0056    0.0100  0.1400E+02  0.3544E+03  0.2588E+00  0.3631E+02  0.1368E+06  0.6950E-04  0.8375E+02  0.5794E+03
    0.0100    0.0178  0.2134E+02  0.5552E+03  0.3779E+00  0.5581E+02  0.2079E+06  0.9978E-04  0.1314E+03  0.8989E+03
    0.0178    0.0316  0.3117E+02  0.8393E+03  0.5209E+00  0.8248E+02  0.3019E+06  0.1345E-03  0.1989E+03  0.1344E+04
    0.0316    0.0562  0.4296E+02  0.1215E+04  0.6682E+00  0.1155E+03  0.4147E+06  0.1674E-03  0.2887E+03  0.1921E+04
    0.0562    0.1000  0.5549E+02  0.1666E+04  0.7870E+00  0.1525E+03  0.5322E+06  0.1891E-03  0.3983E+03  0.2608E+04
    0.1000    0.1778  0.6622E+02  0.2169E+04  0.8392E+00  0.1871E+03  0.6310E+06  0.1829E-03  0.5180E+03  0.3343E+04
    0.1778    0.3162  0.7216E+02  0.2605E+04  0.7869E+00  0.2113E+03  0.6837E+06  0.1492E-03  0.6308E+03  0.4026E+04
    0.3162    0.5623  0.7079E+02  0.2952E+04  0.6500E+00  0.2173E+03  0.6712E+06  0.1040E-03  0.7149E+03  0.4543E+04
    0.5623    1.0000  0.6250E+02  0.3071E+04  0.4650E+00  0.2028E+03  0.5941E+06  0.4638E-04  0.7516E+03  0.4797E+04
    1.0000    1.7783  0.4928E+02  0.2976E+04  0.2854E+00  0.1694E+03  0.4738E+06  0.1705E-04  0.7323E+03  0.4743E+04
    1.7783    3.1623  0.3454E+02  0.2669E+04  0.1511E+00  0.1282E+03  0.4014E+06  0.5240E-05  0.6628E+03  0.4405E+04
    3.1623    5.6234  0.2156E+02  0.2222E+04  0.6916E-01  0.8797E+02  0.3611E+06  0.1365E-05  0.5602E+03  0.3862E+04
    5.6234   10.0000  0.1223E+02  0.1741E+04  0.2760E-01  0.5475E+02  0.3094E+06  0.3071E-06  0.4456E+03  0.3217E+04
   10.0000   17.7828  0.6356E+01  0.1302E+04  0.9842E-02  0.3150E+02  0.2593E+06  0.6090E-07  0.3367E+03  0.2564E+04
   17.7828   31.6228  0.3045E+01  0.9110E+03  0.3178E-02  0.1696E+02  0.2101E+06  0.1086E-07  0.2441E+03  0.1968E+04
   31.6228   56.2341  0.1372E+01  0.6192E+03  0.9425E-03  0.8571E+01  0.1693E+06  0.1777E-08  0.1715E+03  0.1464E+04
   56.2341  100.0000  0.5868E+00  0.4056E+03  0.2568E-03  0.4114E+01  0.1306E+06  0.2711E-09  0.1177E+03  0.1062E+04
  100.0000  177.8279  0.2405E+00  0.2616E+03  0.6651E-04  0.1900E+01  0.9719E+05  0.3915E-10  0.7958E+02  0.7555E+03
  177.8279  316.2278  0.9513E-01  0.1649E+03  0.1662E-04  0.8491E+00  0.7055E+05  0.5415E-11  0.5327E+02  0.5296E+03
  316.2278  562.3413  0.3678E-01  0.1019E+03  0.3933E-05  0.3717E+00  0.5061E+05  0.7245E-12  0.3547E+02  0.3674E+03
  562.3413 1000.0000  0.1380E-01  0.6197E+02  0.9101E-06  0.1586E+00  0.3571E+05  0.9447E-13  0.2357E+02  0.2531E+03
 1000.0000 1778.2794  0.5129E-02  0.3732E+02  0.2067E-06  0.6753E-01  0.2488E+05  0.1208E-13  0.1567E+02  0.1735E+03
 1778.2794 3162.2776  0.1874E-02  0.2261E+02  0.4601E-07  0.2833E-01  0.1717E+05  0.1522E-14  0.1043E+02  0.1186E+03
 3162.2776 5623.4131  0.6804E-03  0.1347E+02  0.1000E-07  0.1185E-01  0.1176E+05  0.1687E-15  0.6963E+01  0.8106E+02
 5623.4131 10000.0000  0.2443E-03  0.8000E+01  0.2180E-08  0.4910E-02  0.8007E+04  0.1494E-16  0.4665E+01  0.5541E+02
  ------------------------------------------------------------------------------------------
           TOTALS:    0.5836E+03  0.2937E+05  0.6244E+01  0.1811E+04  0.6977E+07  0.1260E-02  0.7319E+04  0.5040E+05
