                                       - FLUX SUMMARY -
 L2-CPE V1.3            Kappa-distribution     
 Cartesian (LRAD) Algorithm
 
 
 Phenomenological Region  =>  Solar Wind at SolMax (Ulysses)
 
 
 
 Species  =>  Protons
 
 Negative Y direction flux calculated.
 
 Minimum Energy =     0.0010 keV
 Maximum Energy =  1000.0000 keV
 
 Number of Energy Bins =    50
 
 50% Total Flux        =   0.1093E+08 (#/cm^2/sec)
 95% Total Flux        =   0.9723E+08 (#/cm^2/sec)
  5% Total Flux        =   0.1617E+07 (#/cm^2/sec)
  95% Total Flux       =   0.9723E+08 (#/cm^2/sec)
 Maximum Total Flux    =   0.1634E+10 (#/cm^2/sec)
 Minimum Total Flux    =   0.7640E+05 (#/cm^2/sec)
 Mean Total Flux       =   0.2555E+08 (#/cm^2/sec)
 Std. Dev. Total Flux  =   0.5137E+08 (#/cm^2/sec)
 
 
                        Differential Energy Flux Table  (#/cm^2/sec/keV)
 
    E1(keV)   E2(keV)    50%          95%         5%          95%       Maximum     Minimum     Mean       Std. Dev.
    0.0010    0.0013  0.1087E+10  0.5281E+10  0.2052E+09  0.5281E+10  0.3604E+11  0.8484E+07  0.1713E+10  0.2119E+10
    0.0013    0.0017  0.1026E+10  0.5151E+10  0.1875E+09  0.5151E+10  0.3581E+11  0.7589E+07  0.1655E+10  0.2113E+10
    0.0017    0.0023  0.9513E+09  0.5027E+10  0.1670E+09  0.5027E+10  0.3516E+11  0.6693E+07  0.1580E+10  0.2093E+10
    0.0023    0.0030  0.8626E+09  0.4833E+10  0.1450E+09  0.4833E+10  0.3394E+11  0.5813E+07  0.1485E+10  0.2053E+10
    0.0030    0.0040  0.7591E+09  0.4577E+10  0.1221E+09  0.4577E+10  0.3198E+11  0.4964E+07  0.1368E+10  0.1986E+10
    0.0040    0.0052  0.6410E+09  0.4256E+10  0.9958E+08  0.4256E+10  0.3088E+11  0.4162E+07  0.1229E+10  0.1886E+10
    0.0052    0.0069  0.5233E+09  0.3848E+10  0.7737E+08  0.3848E+10  0.2962E+11  0.3349E+07  0.1071E+10  0.1751E+10
    0.0069    0.0091  0.4085E+09  0.3388E+10  0.5775E+08  0.3388E+10  0.2871E+11  0.2506E+07  0.9010E+09  0.1583E+10
    0.0091    0.0120  0.3062E+09  0.2832E+10  0.4132E+08  0.2832E+10  0.2783E+11  0.1833E+07  0.7274E+09  0.1386E+10
    0.0120    0.0158  0.2162E+09  0.2267E+10  0.2814E+08  0.2267E+10  0.2711E+11  0.1276E+07  0.5611E+09  0.1167E+10
    0.0158    0.0209  0.1428E+09  0.1676E+10  0.1818E+08  0.1676E+10  0.2548E+11  0.8659E+06  0.4130E+09  0.9430E+09
    0.0209    0.0275  0.8983E+08  0.1164E+10  0.1121E+08  0.1164E+10  0.2282E+11  0.5727E+06  0.2902E+09  0.7324E+09
    0.0275    0.0363  0.5397E+08  0.7705E+09  0.6726E+07  0.7705E+09  0.1919E+11  0.3694E+06  0.1949E+09  0.5458E+09
    0.0363    0.0479  0.3088E+08  0.4976E+09  0.3824E+07  0.4976E+09  0.1495E+11  0.2327E+06  0.1252E+09  0.3855E+09
    0.0479    0.0631  0.1694E+08  0.3132E+09  0.2102E+07  0.3132E+09  0.1067E+11  0.1432E+06  0.7698E+08  0.2556E+09
    0.0631    0.0832  0.9035E+07  0.1867E+09  0.1126E+07  0.1867E+09  0.6936E+10  0.8632E+05  0.4536E+08  0.1589E+09
    0.0832    0.1096  0.4682E+07  0.1072E+09  0.5909E+06  0.1072E+09  0.4103E+10  0.5098E+05  0.2572E+08  0.9328E+08
    0.1096    0.1445  0.2354E+07  0.5852E+08  0.3023E+06  0.5852E+08  0.2223E+10  0.2956E+05  0.1409E+08  0.5218E+08
    0.1445    0.1905  0.1166E+07  0.3164E+08  0.1494E+06  0.3164E+08  0.1133E+10  0.1685E+05  0.7495E+07  0.2811E+08
    0.1905    0.2512  0.5761E+06  0.1635E+08  0.7265E+05  0.1635E+08  0.5417E+09  0.1709E+04  0.3888E+07  0.1472E+08
    0.2512    0.3311  0.2796E+06  0.8233E+07  0.3611E+05  0.8233E+07  0.2460E+09  0.1267E+03  0.1975E+07  0.7556E+07
    0.3311    0.4365  0.1353E+06  0.4089E+07  0.1776E+05  0.4089E+07  0.1102E+09  0.8138E+01  0.9860E+06  0.3824E+07
    0.4365    0.5754  0.6480E+05  0.1998E+07  0.8651E+04  0.1998E+07  0.5399E+08  0.4651E+00  0.4855E+06  0.1917E+07
    0.5754    0.7586  0.3077E+05  0.9371E+06  0.4232E+04  0.9371E+06  0.2598E+08  0.2423E-01  0.2364E+06  0.9545E+06
    0.7586    1.0000  0.1466E+05  0.4363E+06  0.2052E+04  0.4363E+06  0.1312E+08  0.1175E-02  0.1141E+06  0.4728E+06
    1.0000    1.3183  0.6967E+04  0.2082E+06  0.9836E+03  0.2082E+06  0.6775E+07  0.5396E-04  0.5474E+05  0.2331E+06
    1.3183    1.7378  0.3296E+04  0.9610E+05  0.4721E+03  0.9610E+05  0.3419E+07  0.2379E-05  0.2613E+05  0.1145E+06
    1.7378    2.2909  0.1551E+04  0.4408E+05  0.2266E+03  0.4408E+05  0.1693E+07  0.1018E-06  0.1243E+05  0.5605E+05
    2.2909    3.0200  0.7248E+03  0.2014E+05  0.1085E+03  0.2014E+05  0.8254E+06  0.4263E-08  0.5898E+04  0.2737E+05
    3.0200    3.9811  0.3414E+03  0.9160E+04  0.5179E+02  0.9160E+04  0.4163E+06  0.1757E-09  0.2797E+04  0.1335E+05
    3.9811    5.2481  0.1602E+03  0.4164E+04  0.2453E+02  0.4164E+04  0.2186E+06  0.7168E-11  0.1326E+04  0.6510E+04
    5.2481    6.9183  0.7526E+02  0.1898E+04  0.1165E+02  0.1898E+04  0.1149E+06  0.2902E-12  0.6295E+03  0.3178E+04
    6.9183    9.1201  0.3511E+02  0.8683E+03  0.5519E+01  0.8683E+03  0.6050E+05  0.1170E-13  0.2992E+03  0.1555E+04
    9.1201   12.0226  0.1639E+02  0.3970E+03  0.2622E+01  0.3970E+03  0.3190E+05  0.4699E-15  0.1425E+03  0.7640E+03
   12.0226   15.8489  0.7610E+01  0.1818E+03  0.1247E+01  0.1818E+03  0.1685E+05  0.1885E-16  0.6808E+02  0.3771E+03
   15.8489   20.8930  0.3540E+01  0.8510E+02  0.5932E+00  0.8510E+02  0.8911E+04  0.7555E-18  0.3262E+02  0.1872E+03
   20.8930   27.5423  0.1647E+01  0.3974E+02  0.2817E+00  0.3974E+02  0.4721E+04  0.3028E-19  0.1568E+02  0.9355E+02
   27.5423   36.3078  0.7632E+00  0.1860E+02  0.1335E+00  0.1860E+02  0.2504E+04  0.1214E-20  0.7567E+01  0.4709E+02
   36.3078   47.8630  0.3539E+00  0.8750E+01  0.6324E-01  0.8750E+01  0.1330E+04  0.4868E-22  0.3666E+01  0.2389E+02
   47.8630   63.0957  0.1650E+00  0.4081E+01  0.3000E-01  0.4081E+01  0.7077E+03  0.1954E-23  0.1784E+01  0.1221E+02
   63.0957   83.1764  0.7664E-01  0.1924E+01  0.1413E-01  0.1924E+01  0.3768E+03  0.7849E-25  0.8715E+00  0.6288E+01
   83.1764  109.6478  0.3533E-01  0.9055E+00  0.6682E-02  0.9055E+00  0.2009E+03  0.3156E-26  0.4278E+00  0.3262E+01
  109.6478  144.5440  0.1630E-01  0.4342E+00  0.3149E-02  0.4342E+00  0.1072E+03  0.1151E-27  0.2109E+00  0.1704E+01
  144.5440  190.5461  0.7483E-02  0.2091E+00  0.1483E-02  0.2091E+00  0.5721E+02  0.1000E-32  0.1045E+00  0.8957E+00
  190.5461  251.1887  0.3422E-02  0.1000E+00  0.6958E-03  0.1000E+00  0.3057E+02  0.1000E-32  0.5198E-01  0.4736E+00
  251.1887  331.1311  0.1568E-02  0.4808E-01  0.3265E-03  0.4808E-01  0.1634E+02  0.1000E-32  0.2598E-01  0.2517E+00
  331.1311  436.5159  0.7161E-03  0.2328E-01  0.1527E-03  0.2328E-01  0.8743E+01  0.1000E-32  0.1304E-01  0.1344E+00
  436.5159  575.4399  0.3252E-03  0.1138E-01  0.7129E-04  0.1138E-01  0.4746E+01  0.1000E-32  0.6579E-02  0.7206E-01
  575.4399  758.5778  0.1483E-03  0.5542E-02  0.3322E-04  0.5542E-02  0.2598E+01  0.1000E-32  0.3333E-02  0.3879E-01
  758.5778 1000.0000  0.6778E-04  0.2666E-02  0.1552E-04  0.2666E-02  0.1423E+01  0.1000E-32  0.1695E-02  0.2095E-01
 
 
                       Particle Flux per Energy Bin Table  (#/cm^2/sec)
 
    E1(keV)   E2(keV)    50%          95%         5%          95%       Maximum     Minimum     Mean       Std. Dev.
    0.0010    0.0013  0.3460E+06  0.1681E+07  0.6529E+05  0.1681E+07  0.1147E+08  0.2700E+04  0.5450E+06  0.6744E+06
    0.0013    0.0017  0.4303E+06  0.2161E+07  0.7867E+05  0.2161E+07  0.1502E+08  0.3184E+04  0.6944E+06  0.8866E+06
    0.0017    0.0023  0.5261E+06  0.2781E+07  0.9235E+05  0.2781E+07  0.1945E+08  0.3702E+04  0.8739E+06  0.1158E+07
    0.0023    0.0030  0.6289E+06  0.3523E+07  0.1057E+06  0.3523E+07  0.2474E+08  0.4238E+04  0.1083E+07  0.1497E+07
    0.0030    0.0040  0.7296E+06  0.4399E+07  0.1174E+06  0.4399E+07  0.3073E+08  0.4771E+04  0.1315E+07  0.1908E+07
    0.0040    0.0052  0.8122E+06  0.5392E+07  0.1262E+06  0.5392E+07  0.3912E+08  0.5273E+04  0.1557E+07  0.2389E+07
    0.0052    0.0069  0.8740E+06  0.6427E+07  0.1292E+06  0.6427E+07  0.4948E+08  0.5593E+04  0.1789E+07  0.2924E+07
    0.0069    0.0091  0.8994E+06  0.7460E+07  0.1272E+06  0.7460E+07  0.6322E+08  0.5519E+04  0.1984E+07  0.3486E+07
    0.0091    0.0120  0.8886E+06  0.8220E+07  0.1199E+06  0.8220E+07  0.8077E+08  0.5320E+04  0.2111E+07  0.4024E+07
    0.0120    0.0158  0.8274E+06  0.8675E+07  0.1077E+06  0.8675E+07  0.1037E+09  0.4883E+04  0.2147E+07  0.4467E+07
    0.0158    0.0209  0.7201E+06  0.8453E+07  0.9168E+05  0.8453E+07  0.1285E+09  0.4368E+04  0.2083E+07  0.4756E+07
    0.0209    0.0275  0.5973E+06  0.7741E+07  0.7451E+05  0.7741E+07  0.1517E+09  0.3808E+04  0.1929E+07  0.4870E+07
    0.0275    0.0363  0.4731E+06  0.6754E+07  0.5895E+05  0.6754E+07  0.1682E+09  0.3238E+04  0.1709E+07  0.4784E+07
    0.0363    0.0479  0.3568E+06  0.5749E+07  0.4418E+05  0.5749E+07  0.1728E+09  0.2689E+04  0.1447E+07  0.4455E+07
    0.0479    0.0631  0.2581E+06  0.4772E+07  0.3202E+05  0.4772E+07  0.1626E+09  0.2182E+04  0.1173E+07  0.3893E+07
    0.0631    0.0832  0.1814E+06  0.3748E+07  0.2261E+05  0.3748E+07  0.1393E+09  0.1733E+04  0.9110E+06  0.3191E+07
    0.0832    0.1096  0.1239E+06  0.2837E+07  0.1564E+05  0.2837E+07  0.1086E+09  0.1350E+04  0.6809E+06  0.2469E+07
    0.1096    0.1445  0.8214E+05  0.2042E+07  0.1055E+05  0.2042E+07  0.7757E+08  0.1031E+04  0.4918E+06  0.1821E+07
    0.1445    0.1905  0.5364E+05  0.1455E+07  0.6875E+04  0.1455E+07  0.5211E+08  0.7750E+03  0.3448E+06  0.1293E+07
    0.1905    0.2512  0.3494E+05  0.9913E+06  0.4406E+04  0.9913E+06  0.3285E+08  0.1036E+03  0.2358E+06  0.8928E+06
    0.2512    0.3311  0.2235E+05  0.6581E+06  0.2887E+04  0.6581E+06  0.1967E+08  0.1013E+02  0.1579E+06  0.6041E+06
    0.3311    0.4365  0.1426E+05  0.4309E+06  0.1872E+04  0.4309E+06  0.1161E+08  0.8577E+00  0.1039E+06  0.4030E+06
    0.4365    0.5754  0.9002E+04  0.2775E+06  0.1202E+04  0.2775E+06  0.7501E+07  0.6461E-01  0.6745E+05  0.2663E+06
    0.5754    0.7586  0.5635E+04  0.1716E+06  0.7751E+03  0.1716E+06  0.4757E+07  0.4437E-02  0.4330E+05  0.1748E+06
    0.7586    1.0000  0.3540E+04  0.1053E+06  0.4954E+03  0.1053E+06  0.3167E+07  0.2837E-03  0.2756E+05  0.1141E+06
    1.0000    1.3183  0.2217E+04  0.6626E+05  0.3130E+03  0.6626E+05  0.2156E+07  0.1717E-04  0.1742E+05  0.7419E+05
    1.3183    1.7378  0.1383E+04  0.4032E+05  0.1981E+03  0.4032E+05  0.1435E+07  0.9982E-06  0.1096E+05  0.4804E+05
    1.7378    2.2909  0.8576E+03  0.2438E+05  0.1253E+03  0.2438E+05  0.9365E+06  0.5630E-07  0.6873E+04  0.3100E+05
    2.2909    3.0200  0.5285E+03  0.1469E+05  0.7911E+02  0.1469E+05  0.6018E+06  0.3108E-08  0.4300E+04  0.1996E+05
    3.0200    3.9811  0.3281E+03  0.8804E+04  0.4978E+02  0.8804E+04  0.4001E+06  0.1689E-09  0.2688E+04  0.1283E+05
    3.9811    5.2481  0.2030E+03  0.5276E+04  0.3108E+02  0.5276E+04  0.2770E+06  0.9082E-11  0.1680E+04  0.8249E+04
    5.2481    6.9183  0.1257E+03  0.3170E+04  0.1946E+02  0.3170E+04  0.1920E+06  0.4848E-12  0.1051E+04  0.5309E+04
    6.9183    9.1201  0.7730E+02  0.1912E+04  0.1215E+02  0.1912E+04  0.1332E+06  0.2575E-13  0.6588E+03  0.3425E+04
    9.1201   12.0226  0.4757E+02  0.1152E+04  0.7610E+01  0.1152E+04  0.9259E+05  0.1364E-14  0.4137E+03  0.2218E+04
   12.0226   15.8489  0.2912E+02  0.6957E+03  0.4772E+01  0.6957E+03  0.6446E+05  0.7212E-16  0.2605E+03  0.1443E+04
   15.8489   20.8930  0.1786E+02  0.4293E+03  0.2992E+01  0.4293E+03  0.4495E+05  0.3811E-17  0.1645E+03  0.9442E+03
   20.8930   27.5423  0.1095E+02  0.2643E+03  0.1873E+01  0.2643E+03  0.3139E+05  0.2013E-18  0.1043E+03  0.6221E+03
   27.5423   36.3078  0.6689E+01  0.1630E+03  0.1170E+01  0.1630E+03  0.2195E+05  0.1064E-19  0.6633E+02  0.4128E+03
   36.3078   47.8630  0.4090E+01  0.1011E+03  0.7307E+00  0.1011E+03  0.1537E+05  0.5626E-21  0.4236E+02  0.2760E+03
   47.8630   63.0957  0.2513E+01  0.6217E+02  0.4570E+00  0.6217E+02  0.1078E+05  0.2977E-22  0.2717E+02  0.1860E+03
   63.0957   83.1764  0.1539E+01  0.3863E+02  0.2838E+00  0.3863E+02  0.7567E+04  0.1576E-23  0.1750E+02  0.1263E+03
   83.1764  109.6478  0.9353E+00  0.2397E+02  0.1769E+00  0.2397E+02  0.5317E+04  0.8353E-25  0.1132E+02  0.8635E+02
  109.6478  144.5440  0.5688E+00  0.1515E+02  0.1099E+00  0.1515E+02  0.3739E+04  0.4017E-26  0.7360E+01  0.5946E+02
  144.5440  190.5461  0.3442E+00  0.9617E+01  0.6824E-01  0.9617E+01  0.2632E+04  0.4600E-31  0.4805E+01  0.4120E+02
  190.5461  251.1887  0.2075E+00  0.6064E+01  0.4220E-01  0.6064E+01  0.1854E+04  0.6064E-31  0.3152E+01  0.2872E+02
  251.1887  331.1311  0.1253E+00  0.3844E+01  0.2610E-01  0.3844E+01  0.1307E+04  0.7994E-31  0.2077E+01  0.2012E+02
  331.1311  436.5159  0.7546E-01  0.2453E+01  0.1609E-01  0.2453E+01  0.9214E+03  0.1054E-30  0.1375E+01  0.1416E+02
  436.5159  575.4399  0.4518E-01  0.1581E+01  0.9904E-02  0.1581E+01  0.6593E+03  0.1389E-30  0.9140E+00  0.1001E+02
  575.4399  758.5778  0.2715E-01  0.1015E+01  0.6084E-02  0.1015E+01  0.4758E+03  0.1831E-30  0.6103E+00  0.7103E+01
  758.5778 1000.0000  0.1636E-01  0.6436E+00  0.3748E-02  0.6436E+00  0.3435E+03  0.2414E-30  0.4093E+00  0.5057E+01
  ------------------------------------------------------------------------------------------
           TOTALS:    0.9905E+07  0.9707E+08  0.1439E+07  0.9707E+08  0.1685E+10  0.6647E+05  0.2555E+08  0.5761E+08
