                                       - FLUX SUMMARY -
 L2-CPE V1.3            Kappa-distribution     
 Cartesian (LRAD) Algorithm
 
 
 Phenomenological Region  =>  Solar Wind at SolMax (IMP-8)
 
 
 
 Species  =>  Electrons
 
 Positive X direction flux calculated.
 
 Minimum Energy =     0.0010 keV
 Maximum Energy = 10000.0000 keV
 
 Number of Energy Bins =    50
 
 50% Total Flux        =   0.8057E+09 (#/cm^2/sec)
 95% Total Flux        =   0.2645E+10 (#/cm^2/sec)
  5% Total Flux        =   0.2571E+09 (#/cm^2/sec)
  67% Total Flux       =   0.1104E+10 (#/cm^2/sec)
 Maximum Total Flux    =   0.1548E+11 (#/cm^2/sec)
 Minimum Total Flux    =   0.1366E+07 (#/cm^2/sec)
 Mean Total Flux       =   0.1045E+10 (#/cm^2/sec)
 Std. Dev. Total Flux  =   0.8161E+09 (#/cm^2/sec)
 
 
                        Differential Energy Flux Table  (#/cm^2/sec/keV)
 
    E1(keV)   E2(keV)    50%          95%         5%          67%       Maximum     Minimum     Mean       Std. Dev.
    0.0010    0.0014  0.8682E+11  0.2820E+12  0.2898E+11  0.1185E+12  0.1544E+13  0.2440E+09  0.1122E+12  0.8585E+11
    0.0014    0.0019  0.7936E+11  0.2583E+12  0.2611E+11  0.1084E+12  0.1439E+13  0.1819E+09  0.1026E+12  0.7895E+11
    0.0019    0.0026  0.7089E+11  0.2314E+12  0.2297E+11  0.9692E+11  0.1315E+13  0.1332E+09  0.9173E+11  0.7100E+11
    0.0026    0.0036  0.6146E+11  0.2015E+12  0.1961E+11  0.8407E+11  0.1170E+13  0.9580E+08  0.7964E+11  0.6208E+11
    0.0036    0.0050  0.5144E+11  0.1695E+12  0.1614E+11  0.7042E+11  0.1006E+13  0.6779E+08  0.6672E+11  0.5241E+11
    0.0050    0.0069  0.4120E+11  0.1364E+12  0.1274E+11  0.5645E+11  0.8293E+12  0.4724E+08  0.5354E+11  0.4237E+11
    0.0069    0.0095  0.3136E+11  0.1042E+12  0.9570E+10  0.4302E+11  0.6476E+12  0.3246E+08  0.4081E+11  0.3252E+11
    0.0095    0.0132  0.2249E+11  0.7502E+11  0.6810E+10  0.3090E+11  0.4735E+12  0.2201E+08  0.2931E+11  0.2347E+11
    0.0132    0.0182  0.1510E+11  0.5044E+11  0.4571E+10  0.2075E+11  0.3198E+12  0.1475E+08  0.1969E+11  0.1579E+11
    0.0182    0.0251  0.9448E+10  0.3146E+11  0.2886E+10  0.1297E+11  0.1971E+12  0.9784E+07  0.1231E+11  0.9826E+10
    0.0251    0.0347  0.5485E+10  0.1818E+11  0.1711E+10  0.7526E+10  0.1096E+12  0.6428E+07  0.7135E+10  0.5637E+10
    0.0347    0.0479  0.2957E+10  0.9700E+10  0.9509E+09  0.4058E+10  0.5447E+11  0.4187E+07  0.3839E+10  0.2984E+10
    0.0479    0.0661  0.1484E+10  0.4835E+10  0.4932E+09  0.2039E+10  0.2413E+11  0.2708E+07  0.1925E+10  0.1468E+10
    0.0661    0.0912  0.6993E+09  0.2277E+10  0.2389E+09  0.9701E+09  0.1025E+11  0.1740E+07  0.9077E+09  0.6821E+09
    0.0912    0.1259  0.3135E+09  0.1018E+10  0.1078E+09  0.4314E+09  0.4509E+10  0.1111E+07  0.4066E+09  0.3057E+09
    0.1259    0.1738  0.1356E+09  0.4415E+09  0.4496E+08  0.1839E+09  0.2001E+10  0.7064E+06  0.1752E+09  0.1355E+09
    0.1738    0.2399  0.5606E+08  0.1905E+09  0.1726E+08  0.7671E+08  0.8579E+09  0.4471E+06  0.7358E+08  0.6059E+08
    0.2399    0.3311  0.2226E+08  0.8244E+08  0.6143E+07  0.3138E+08  0.3758E+09  0.2819E+06  0.3045E+08  0.2769E+08
    0.3311    0.4571  0.8582E+07  0.3650E+08  0.2045E+07  0.1258E+08  0.2109E+09  0.1314E+06  0.1255E+08  0.1296E+08
    0.4571    0.6310  0.3224E+07  0.1631E+08  0.6431E+06  0.4976E+07  0.1176E+09  0.3520E+05  0.5190E+07  0.6201E+07
    0.6310    0.8710  0.1191E+07  0.7400E+07  0.1926E+06  0.1943E+07  0.6524E+08  0.9068E+04  0.2168E+07  0.3027E+07
    0.8710    1.2023  0.4340E+06  0.3394E+07  0.5565E+05  0.7515E+06  0.3602E+08  0.2264E+04  0.9189E+06  0.1504E+07
    1.2023    1.6596  0.1558E+06  0.1562E+07  0.1572E+05  0.2891E+06  0.1982E+08  0.5221E+03  0.3961E+06  0.7599E+06
    1.6596    2.2909  0.5555E+05  0.7251E+06  0.4342E+04  0.1104E+06  0.1087E+08  0.1038E+03  0.1740E+06  0.3899E+06
    2.2909    3.1623  0.1968E+05  0.3343E+06  0.1182E+04  0.4208E+05  0.6066E+07  0.1763E+02  0.7795E+05  0.2030E+06
    3.1623    4.3652  0.6922E+04  0.1549E+06  0.3178E+03  0.1601E+05  0.3457E+07  0.2950E+01  0.3562E+05  0.1071E+06
    4.3652    6.0256  0.2431E+04  0.7210E+05  0.8507E+02  0.6041E+04  0.1967E+07  0.4878E+00  0.1659E+05  0.5722E+05
    6.0256    8.3176  0.8501E+03  0.3350E+05  0.2243E+02  0.2280E+04  0.1118E+07  0.7995E-01  0.7873E+04  0.3091E+05
    8.3176   11.4815  0.2962E+03  0.1562E+05  0.5879E+01  0.8632E+03  0.6348E+06  0.1302E-01  0.3802E+04  0.1686E+05
   11.4815   15.8489  0.1032E+03  0.7232E+04  0.1531E+01  0.3248E+03  0.3617E+06  0.2108E-02  0.1867E+04  0.9283E+04
   15.8489   21.8776  0.3587E+02  0.3368E+04  0.3962E+00  0.1221E+03  0.2126E+06  0.3399E-03  0.9308E+03  0.5151E+04
   21.8776   30.1995  0.1244E+02  0.1565E+04  0.1032E+00  0.4586E+02  0.1249E+06  0.5465E-04  0.4707E+03  0.2879E+04
   30.1995   41.6869  0.4326E+01  0.7287E+03  0.2661E-01  0.1721E+02  0.7337E+05  0.8763E-05  0.2412E+03  0.1620E+04
   41.6869   57.5440  0.1500E+01  0.3402E+03  0.6835E-02  0.6470E+01  0.4308E+05  0.1403E-05  0.1251E+03  0.9164E+03
   57.5440   79.4328  0.5200E+00  0.1581E+03  0.1756E-02  0.2435E+01  0.2529E+05  0.2241E-06  0.6558E+02  0.5212E+03
   79.4328  109.6478  0.1799E+00  0.7375E+02  0.4506E-03  0.9149E+00  0.1484E+05  0.3577E-07  0.3473E+02  0.2978E+03
  109.6478  151.3562  0.6232E-01  0.3426E+02  0.1154E-03  0.3433E+00  0.8708E+04  0.5704E-08  0.1856E+02  0.1708E+03
  151.3562  208.9296  0.2151E-01  0.1590E+02  0.2962E-04  0.1286E+00  0.5172E+04  0.9087E-09  0.1000E+02  0.9840E+02
  208.9296  288.4032  0.7457E-02  0.7380E+01  0.7609E-05  0.4807E-01  0.3161E+04  0.1447E-09  0.5433E+01  0.5687E+02
  288.4032  398.1071  0.2579E-02  0.3437E+01  0.1944E-05  0.1800E-01  0.1932E+04  0.2302E-10  0.2971E+01  0.3297E+02
  398.1071  549.5409  0.8924E-03  0.1598E+01  0.4963E-06  0.6733E-02  0.1181E+04  0.3662E-11  0.1635E+01  0.1917E+02
  549.5409  758.5778  0.3076E-03  0.7476E+00  0.1266E-06  0.2521E-02  0.7216E+03  0.5823E-12  0.9051E+00  0.1118E+02
  758.5778 1047.1285  0.1060E-03  0.3498E+00  0.3247E-07  0.9437E-03  0.4409E+03  0.9256E-13  0.5038E+00  0.6532E+01
 1047.1285 1445.4401  0.3660E-04  0.1630E+00  0.8304E-08  0.3529E-03  0.2694E+03  0.1471E-13  0.2817E+00  0.3826E+01
 1445.4401 1995.2621  0.1265E-04  0.7608E-01  0.2125E-08  0.1317E-03  0.1646E+03  0.2337E-14  0.1583E+00  0.2245E+01
 1995.2621 2754.2290  0.4365E-05  0.3548E-01  0.5405E-09  0.4927E-04  0.1005E+03  0.3713E-15  0.8930E-01  0.1320E+01
 2754.2290 3801.8933  0.1507E-05  0.1659E-01  0.1376E-09  0.1844E-04  0.6142E+02  0.5898E-16  0.5057E-01  0.7778E+00
 3801.8933 5248.0747  0.5210E-06  0.7747E-02  0.3499E-10  0.6906E-05  0.3752E+02  0.9367E-17  0.2874E-01  0.4590E+00
 5248.0747 7244.3579  0.1803E-06  0.3616E-02  0.8954E-11  0.2584E-05  0.2292E+02  0.1488E-17  0.1639E-01  0.2712E+00
 7244.3579 10000.0000  0.6227E-07  0.1687E-02  0.2285E-11  0.9688E-06  0.1400E+02  0.2362E-18  0.9372E-02  0.1605E+00
 
 
                       Particle Flux per Energy Bin Table  (#/cm^2/sec)
 
    E1(keV)   E2(keV)    50%          95%         5%          67%       Maximum     Minimum     Mean       Std. Dev.
    0.0010    0.0014  0.3303E+08  0.1073E+09  0.1102E+08  0.4508E+08  0.5873E+09  0.9282E+05  0.4269E+08  0.3266E+08
    0.0014    0.0019  0.4167E+08  0.1356E+09  0.1371E+08  0.5692E+08  0.7558E+09  0.9552E+05  0.5390E+08  0.4146E+08
    0.0019    0.0026  0.5138E+08  0.1677E+09  0.1665E+08  0.7025E+08  0.9531E+09  0.9652E+05  0.6649E+08  0.5146E+08
    0.0026    0.0036  0.6150E+08  0.2016E+09  0.1962E+08  0.8412E+08  0.1171E+10  0.9585E+05  0.7968E+08  0.6211E+08
    0.0036    0.0050  0.7105E+08  0.2341E+09  0.2229E+08  0.9726E+08  0.1390E+10  0.9362E+05  0.9215E+08  0.7238E+08
    0.0050    0.0069  0.7854E+08  0.2601E+09  0.2428E+08  0.1076E+09  0.1581E+10  0.9006E+05  0.1021E+09  0.8078E+08
    0.0069    0.0095  0.8252E+08  0.2743E+09  0.2518E+08  0.1132E+09  0.1704E+10  0.8541E+05  0.1074E+09  0.8558E+08
    0.0095    0.0132  0.8171E+08  0.2725E+09  0.2474E+08  0.1122E+09  0.1720E+10  0.7996E+05  0.1065E+09  0.8525E+08
    0.0132    0.0182  0.7572E+08  0.2529E+09  0.2292E+08  0.1041E+09  0.1604E+10  0.7398E+05  0.9875E+08  0.7916E+08
    0.0182    0.0251  0.6540E+08  0.2178E+09  0.1997E+08  0.8978E+08  0.1364E+10  0.6772E+05  0.8519E+08  0.6801E+08
    0.0251    0.0347  0.5241E+08  0.1737E+09  0.1634E+08  0.7191E+08  0.1047E+10  0.6142E+05  0.6817E+08  0.5386E+08
    0.0347    0.0479  0.3900E+08  0.1279E+09  0.1254E+08  0.5352E+08  0.7185E+09  0.5523E+05  0.5063E+08  0.3935E+08
    0.0479    0.0661  0.2703E+08  0.8803E+08  0.8980E+07  0.3712E+08  0.4393E+09  0.4930E+05  0.3505E+08  0.2673E+08
    0.0661    0.0912  0.1757E+08  0.5722E+08  0.6005E+07  0.2438E+08  0.2577E+09  0.4372E+05  0.2281E+08  0.1714E+08
    0.0912    0.1259  0.1088E+08  0.3530E+08  0.3739E+07  0.1497E+08  0.1564E+09  0.3855E+05  0.1411E+08  0.1060E+08
    0.1259    0.1738  0.6491E+07  0.2114E+08  0.2153E+07  0.8807E+07  0.9582E+08  0.3383E+05  0.8392E+07  0.6487E+07
    0.1738    0.2399  0.3706E+07  0.1259E+08  0.1141E+07  0.5071E+07  0.5671E+08  0.2955E+05  0.4864E+07  0.4005E+07
    0.2399    0.3311  0.2031E+07  0.7523E+07  0.5605E+06  0.2863E+07  0.3429E+08  0.2572E+05  0.2779E+07  0.2526E+07
    0.3311    0.4571  0.1081E+07  0.4597E+07  0.2576E+06  0.1585E+07  0.2657E+08  0.1656E+05  0.1581E+07  0.1632E+07
    0.4571    0.6310  0.5605E+06  0.2835E+07  0.1118E+06  0.8652E+06  0.2045E+08  0.6120E+04  0.9025E+06  0.1078E+07
    0.6310    0.8710  0.2859E+06  0.1776E+07  0.4623E+05  0.4663E+06  0.1566E+08  0.2176E+04  0.5204E+06  0.7265E+06
    0.8710    1.2023  0.1438E+06  0.1124E+07  0.1844E+05  0.2490E+06  0.1193E+08  0.7501E+03  0.3044E+06  0.4983E+06
    1.2023    1.6596  0.7124E+05  0.7142E+06  0.7190E+04  0.1322E+06  0.9062E+07  0.2387E+03  0.1812E+06  0.3475E+06
    1.6596    2.2909  0.3507E+05  0.4577E+06  0.2741E+04  0.6967E+05  0.6861E+07  0.6556E+02  0.1098E+06  0.2461E+06
    2.2909    3.1623  0.1715E+05  0.2914E+06  0.1030E+04  0.3667E+05  0.5286E+07  0.1537E+02  0.6793E+05  0.1769E+06
    3.1623    4.3652  0.8327E+04  0.1864E+06  0.3823E+03  0.1925E+05  0.4158E+07  0.3548E+01  0.4284E+05  0.1288E+06
    4.3652    6.0256  0.4037E+04  0.1197E+06  0.1412E+03  0.1003E+05  0.3266E+07  0.8100E+00  0.2755E+05  0.9501E+05
    6.0256    8.3176  0.1948E+04  0.7678E+05  0.5140E+02  0.5226E+04  0.2563E+07  0.1833E+00  0.1804E+05  0.7084E+05
    8.3176   11.4815  0.9370E+03  0.4942E+05  0.1860E+02  0.2731E+04  0.2009E+07  0.4118E-01  0.1203E+05  0.5335E+05
   11.4815   15.8489  0.4508E+03  0.3159E+05  0.6689E+01  0.1419E+04  0.1579E+07  0.9205E-02  0.8153E+04  0.4054E+05
   15.8489   21.8776  0.2162E+03  0.2031E+05  0.2388E+01  0.7364E+03  0.1282E+07  0.2049E-02  0.5611E+04  0.3106E+05
   21.8776   30.1995  0.1036E+03  0.1303E+05  0.8584E+00  0.3817E+03  0.1040E+07  0.4548E-03  0.3917E+04  0.2396E+05
   30.1995   41.6869  0.4969E+02  0.8371E+04  0.3057E+00  0.1977E+03  0.8428E+06  0.1007E-03  0.2771E+04  0.1861E+05
   41.6869   57.5440  0.2378E+02  0.5394E+04  0.1084E+00  0.1026E+03  0.6831E+06  0.2224E-04  0.1983E+04  0.1453E+05
   57.5440   79.4328  0.1138E+02  0.3460E+04  0.3843E-01  0.5329E+02  0.5535E+06  0.4906E-05  0.1435E+04  0.1141E+05
   79.4328  109.6478  0.5437E+01  0.2228E+04  0.1361E-01  0.2764E+02  0.4484E+06  0.1081E-05  0.1049E+04  0.8997E+04
  109.6478  151.3562  0.2599E+01  0.1429E+04  0.4815E-02  0.1432E+02  0.3632E+06  0.2379E-06  0.7741E+03  0.7126E+04
  151.3562  208.9296  0.1238E+01  0.9153E+03  0.1706E-02  0.7405E+01  0.2978E+06  0.5232E-07  0.5759E+03  0.5665E+04
  208.9296  288.4032  0.5926E+00  0.5865E+03  0.6047E-03  0.3820E+01  0.2512E+06  0.1150E-07  0.4317E+03  0.4520E+04
  288.4032  398.1071  0.2830E+00  0.3770E+03  0.2133E-03  0.1975E+01  0.2120E+06  0.2526E-08  0.3259E+03  0.3617E+04
  398.1071  549.5409  0.1351E+00  0.2419E+03  0.7516E-04  0.1020E+01  0.1788E+06  0.5546E-09  0.2476E+03  0.2903E+04
  549.5409  758.5778  0.6429E-01  0.1563E+03  0.2646E-04  0.5269E+00  0.1508E+06  0.1217E-09  0.1892E+03  0.2336E+04
  758.5778 1047.1285  0.3058E-01  0.1009E+03  0.9370E-05  0.2723E+00  0.1272E+06  0.2671E-10  0.1454E+03  0.1885E+04
 1047.1285 1445.4401  0.1458E-01  0.6491E+02  0.3308E-05  0.1406E+00  0.1073E+06  0.5859E-11  0.1122E+03  0.1524E+04
 1445.4401 1995.2621  0.6956E-02  0.4183E+02  0.1168E-05  0.7241E-01  0.9049E+05  0.1285E-11  0.8703E+02  0.1235E+04
 1995.2621 2754.2290  0.3313E-02  0.2693E+02  0.4102E-06  0.3739E-01  0.7631E+05  0.2818E-12  0.6777E+02  0.1002E+04
 2754.2290 3801.8933  0.1579E-02  0.1738E+02  0.1441E-06  0.1932E-01  0.6435E+05  0.6179E-13  0.5298E+02  0.8149E+03
 3801.8933 5248.0747  0.7534E-03  0.1120E+02  0.5061E-07  0.9988E-02  0.5426E+05  0.1355E-13  0.4156E+02  0.6637E+03
 5248.0747 7244.3579  0.3600E-03  0.7219E+01  0.1787E-07  0.5159E-02  0.4575E+05  0.2970E-14  0.3271E+02  0.5414E+03
 7244.3579 10000.0000  0.1716E-03  0.4649E+01  0.6297E-08  0.2670E-02  0.3858E+05  0.6509E-15  0.2583E+02  0.4423E+03
  ------------------------------------------------------------------------------------------
           TOTALS:    0.8038E+09  0.2660E+10  0.2523E+09  0.1103E+10  0.1575E+11  0.1235E+07  0.1045E+10  0.8248E+09
