                                       - FLUX SUMMARY -
 L2-CPE V1.3            Kappa-distribution     
 Cartesian (LRAD) Algorithm
 
 
 Phenomenological Region  =>  Solar Wind at SolMax (IMP-8)
 
 
 
 Species  =>  Electrons
 
 Positive Z direction flux calculated.
 
 Minimum Energy =     0.0010 keV
 Maximum Energy = 10000.0000 keV
 
 Number of Energy Bins =    50
 
 50% Total Flux        =   0.1230E+10 (#/cm^2/sec)
 95% Total Flux        =   0.3959E+10 (#/cm^2/sec)
  5% Total Flux        =   0.4390E+09 (#/cm^2/sec)
  67% Total Flux       =   0.1660E+10 (#/cm^2/sec)
 Maximum Total Flux    =   0.2144E+11 (#/cm^2/sec)
 Minimum Total Flux    =   0.3202E+07 (#/cm^2/sec)
 Mean Total Flux       =   0.1585E+10 (#/cm^2/sec)
 Std. Dev. Total Flux  =   0.1204E+10 (#/cm^2/sec)
 
 
                        Differential Energy Flux Table  (#/cm^2/sec/keV)
 
    E1(keV)   E2(keV)    50%          95%         5%          67%       Maximum     Minimum     Mean       Std. Dev.
    0.0010    0.0014  0.1144E+12  0.3658E+12  0.4272E+11  0.1546E+12  0.1828E+13  0.1298E+10  0.1471E+12  0.1091E+12
    0.0014    0.0019  0.1075E+12  0.3440E+12  0.3992E+11  0.1453E+12  0.1740E+13  0.7922E+09  0.1383E+12  0.1029E+12
    0.0019    0.0026  0.9889E+11  0.3168E+12  0.3640E+11  0.1336E+12  0.1628E+13  0.4840E+09  0.1273E+12  0.9514E+11
    0.0026    0.0036  0.8849E+11  0.2839E+12  0.3220E+11  0.1195E+12  0.1486E+13  0.2960E+09  0.1140E+12  0.8563E+11
    0.0036    0.0050  0.7644E+11  0.2459E+12  0.2747E+11  0.1031E+12  0.1315E+13  0.1812E+09  0.9847E+11  0.7448E+11
    0.0050    0.0069  0.6312E+11  0.2036E+12  0.2230E+11  0.8520E+11  0.1116E+13  0.1110E+09  0.8137E+11  0.6203E+11
    0.0069    0.0095  0.4933E+11  0.1596E+12  0.1714E+11  0.6662E+11  0.8984E+12  0.6807E+08  0.6367E+11  0.4895E+11
    0.0095    0.0132  0.3615E+11  0.1174E+12  0.1236E+11  0.4883E+11  0.6763E+12  0.4177E+08  0.4670E+11  0.3619E+11
    0.0132    0.0182  0.2460E+11  0.8023E+11  0.8302E+10  0.3324E+11  0.4690E+12  0.2564E+08  0.3181E+11  0.2479E+11
    0.0182    0.0251  0.1544E+11  0.5039E+11  0.5198E+10  0.2086E+11  0.2952E+12  0.1575E+08  0.1996E+11  0.1558E+11
    0.0251    0.0347  0.8901E+10  0.2893E+11  0.3033E+10  0.1203E+11  0.1664E+12  0.9682E+07  0.1150E+11  0.8928E+10
    0.0347    0.0479  0.4717E+10  0.1523E+11  0.1647E+10  0.6372E+10  0.8314E+11  0.5953E+07  0.6086E+10  0.4664E+10
    0.0479    0.0661  0.2308E+10  0.7403E+10  0.8331E+09  0.3119E+10  0.3665E+11  0.3662E+07  0.2973E+10  0.2237E+10
    0.0661    0.0912  0.1049E+10  0.3358E+10  0.3955E+09  0.1430E+10  0.1441E+11  0.2253E+07  0.1355E+10  0.1001E+10
    0.0912    0.1259  0.4514E+09  0.1443E+10  0.1741E+09  0.6201E+09  0.6046E+10  0.1387E+07  0.5836E+09  0.4286E+09
    0.1259    0.1738  0.1875E+09  0.6025E+09  0.6904E+08  0.2527E+09  0.2586E+10  0.8537E+06  0.2413E+09  0.1808E+09
    0.1738    0.2399  0.7485E+08  0.2474E+09  0.2548E+08  0.1010E+09  0.1076E+10  0.5256E+06  0.9722E+08  0.7712E+08
    0.2399    0.3311  0.2877E+08  0.1027E+09  0.8689E+07  0.3985E+08  0.4597E+09  0.3237E+06  0.3869E+08  0.3381E+08
    0.3311    0.4571  0.1074E+08  0.4379E+08  0.2765E+07  0.1551E+08  0.2508E+09  0.1994E+06  0.1538E+08  0.1529E+08
    0.4571    0.6310  0.3930E+07  0.1894E+08  0.8365E+06  0.5966E+07  0.1364E+09  0.6056E+05  0.6161E+07  0.7114E+07
    0.6310    0.8710  0.1412E+07  0.8385E+07  0.2423E+06  0.2275E+07  0.7407E+08  0.1455E+05  0.2503E+07  0.3393E+07
    0.8710    1.2023  0.5024E+06  0.3779E+07  0.6773E+05  0.8609E+06  0.4015E+08  0.3325E+04  0.1036E+07  0.1654E+07
    1.2023    1.6596  0.1767E+06  0.1713E+07  0.1865E+05  0.3246E+06  0.2174E+08  0.7060E+03  0.4376E+06  0.8224E+06
    1.6596    2.2909  0.6194E+05  0.7820E+06  0.5029E+04  0.1220E+06  0.1176E+08  0.1215E+03  0.1890E+06  0.4165E+06
    2.2909    3.1623  0.2159E+05  0.3572E+06  0.1336E+04  0.4585E+05  0.6469E+07  0.2018E+02  0.8349E+05  0.2145E+06
    3.1623    4.3652  0.7494E+04  0.1641E+06  0.3540E+03  0.1721E+05  0.3652E+07  0.3312E+01  0.3770E+05  0.1121E+06
    4.3652    6.0256  0.2604E+04  0.7548E+05  0.9305E+02  0.6432E+04  0.2061E+07  0.5385E+00  0.1739E+05  0.5945E+05
    6.0256    8.3176  0.8997E+03  0.3483E+05  0.2424E+02  0.2407E+04  0.1164E+07  0.8701E-01  0.8187E+04  0.3191E+05
    8.3176   11.4815  0.3111E+03  0.1613E+05  0.6277E+01  0.9030E+03  0.6567E+06  0.1399E-01  0.3928E+04  0.1732E+05
   11.4815   15.8489  0.1076E+03  0.7444E+04  0.1622E+01  0.3373E+03  0.3707E+06  0.2241E-02  0.1918E+04  0.9494E+04
   15.8489   21.8776  0.3720E+02  0.3453E+04  0.4163E+00  0.1262E+03  0.2162E+06  0.3582E-03  0.9520E+03  0.5250E+04
   21.8776   30.1995  0.1283E+02  0.1599E+04  0.1072E+00  0.4720E+02  0.1267E+06  0.5714E-04  0.4796E+03  0.2925E+04
   30.1995   41.6869  0.4440E+01  0.7430E+03  0.2750E-01  0.1762E+02  0.7427E+05  0.9103E-05  0.2450E+03  0.1642E+04
   41.6869   57.5440  0.1533E+01  0.3456E+03  0.7040E-02  0.6605E+01  0.4353E+05  0.1449E-05  0.1267E+03  0.9268E+03
   57.5440   79.4328  0.5299E+00  0.1600E+03  0.1802E-02  0.2479E+01  0.2551E+05  0.2304E-06  0.6630E+02  0.5261E+03
   79.4328  109.6478  0.1829E+00  0.7461E+02  0.4608E-03  0.9288E+00  0.1495E+05  0.3662E-07  0.3505E+02  0.3002E+03
  109.6478  151.3562  0.6319E-01  0.3459E+02  0.1177E-03  0.3477E+00  0.8764E+04  0.5819E-08  0.1870E+02  0.1720E+03
  151.3562  208.9296  0.2177E-01  0.1603E+02  0.3010E-04  0.1300E+00  0.5200E+04  0.9243E-09  0.1007E+02  0.9897E+02
  208.9296  288.4032  0.7530E-02  0.7431E+01  0.7709E-05  0.4852E-01  0.3176E+04  0.1468E-09  0.5462E+01  0.5715E+02
  288.4032  398.1071  0.2602E-02  0.3457E+01  0.1965E-05  0.1815E-01  0.1940E+04  0.2331E-10  0.2985E+01  0.3311E+02
  398.1071  549.5409  0.8989E-03  0.1606E+01  0.5011E-06  0.6776E-02  0.1185E+04  0.3701E-11  0.1641E+01  0.1924E+02
  549.5409  758.5778  0.3094E-03  0.7510E+00  0.1277E-06  0.2535E-02  0.7236E+03  0.5875E-12  0.9081E+00  0.1121E+02
  758.5778 1047.1285  0.1065E-03  0.3513E+00  0.3273E-07  0.9479E-03  0.4420E+03  0.9327E-13  0.5051E+00  0.6548E+01
 1047.1285 1445.4401  0.3676E-04  0.1634E+00  0.8360E-08  0.3543E-03  0.2699E+03  0.1481E-13  0.2824E+00  0.3834E+01
 1445.4401 1995.2621  0.1269E-04  0.7628E-01  0.2138E-08  0.1322E-03  0.1649E+03  0.2350E-14  0.1586E+00  0.2249E+01
 1995.2621 2754.2290  0.4381E-05  0.3555E-01  0.5426E-09  0.4940E-04  0.1007E+03  0.3731E-15  0.8944E-01  0.1322E+01
 2754.2290 3801.8933  0.1512E-05  0.1662E-01  0.1380E-09  0.1850E-04  0.6150E+02  0.5922E-16  0.5064E-01  0.7788E+00
 3801.8933 5248.0747  0.5223E-06  0.7757E-02  0.3514E-10  0.6923E-05  0.3756E+02  0.9399E-17  0.2877E-01  0.4595E+00
 5248.0747 7244.3579  0.1807E-06  0.3622E-02  0.8978E-11  0.2589E-05  0.2294E+02  0.1492E-17  0.1640E-01  0.2715E+00
 7244.3579 10000.0000  0.6238E-07  0.1689E-02  0.2290E-11  0.9702E-06  0.1401E+02  0.2368E-18  0.9380E-02  0.1606E+00
 
 
                       Particle Flux per Energy Bin Table  (#/cm^2/sec)
 
    E1(keV)   E2(keV)    50%          95%         5%          67%       Maximum     Minimum     Mean       Std. Dev.
    0.0010    0.0014  0.4350E+08  0.1391E+09  0.1625E+08  0.5882E+08  0.6954E+09  0.4938E+06  0.5595E+08  0.4152E+08
    0.0014    0.0019  0.5642E+08  0.1806E+09  0.2096E+08  0.7630E+08  0.9138E+09  0.4160E+06  0.7262E+08  0.5405E+08
    0.0019    0.0026  0.7168E+08  0.2296E+09  0.2638E+08  0.9686E+08  0.1180E+10  0.3508E+06  0.9227E+08  0.6896E+08
    0.0026    0.0036  0.8853E+08  0.2841E+09  0.3221E+08  0.1196E+09  0.1487E+10  0.2961E+06  0.1140E+09  0.8567E+08
    0.0036    0.0050  0.1056E+09  0.3397E+09  0.3794E+08  0.1424E+09  0.1816E+10  0.2502E+06  0.1360E+09  0.1029E+09
    0.0050    0.0069  0.1203E+09  0.3881E+09  0.4251E+08  0.1624E+09  0.2128E+10  0.2116E+06  0.1551E+09  0.1183E+09
    0.0069    0.0095  0.1298E+09  0.4200E+09  0.4510E+08  0.1753E+09  0.2364E+10  0.1791E+06  0.1676E+09  0.1288E+09
    0.0095    0.0132  0.1313E+09  0.4264E+09  0.4489E+08  0.1774E+09  0.2457E+10  0.1517E+06  0.1697E+09  0.1315E+09
    0.0132    0.0182  0.1233E+09  0.4023E+09  0.4163E+08  0.1667E+09  0.2352E+10  0.1286E+06  0.1595E+09  0.1243E+09
    0.0182    0.0251  0.1069E+09  0.3488E+09  0.3598E+08  0.1444E+09  0.2044E+10  0.1090E+06  0.1382E+09  0.1078E+09
    0.0251    0.0347  0.8504E+08  0.2764E+09  0.2898E+08  0.1149E+09  0.1590E+10  0.9251E+05  0.1099E+09  0.8531E+08
    0.0347    0.0479  0.6222E+08  0.2008E+09  0.2172E+08  0.8404E+08  0.1097E+10  0.7852E+05  0.8027E+08  0.6151E+08
    0.0479    0.0661  0.4202E+08  0.1348E+09  0.1517E+08  0.5678E+08  0.6673E+09  0.6667E+05  0.5413E+08  0.4072E+08
    0.0661    0.0912  0.2637E+08  0.8439E+08  0.9938E+07  0.3594E+08  0.3621E+09  0.5663E+05  0.3405E+08  0.2516E+08
    0.0912    0.1259  0.1566E+08  0.5005E+08  0.6039E+07  0.2151E+08  0.2098E+09  0.4811E+05  0.2025E+08  0.1487E+08
    0.1259    0.1738  0.8981E+07  0.2885E+08  0.3306E+07  0.1210E+08  0.1238E+09  0.4088E+05  0.1156E+08  0.8656E+07
    0.1738    0.2399  0.4948E+07  0.1636E+08  0.1685E+07  0.6675E+07  0.7110E+08  0.3475E+05  0.6426E+07  0.5098E+07
    0.2399    0.3311  0.2625E+07  0.9371E+07  0.7928E+06  0.3636E+07  0.4194E+08  0.2954E+05  0.3530E+07  0.3085E+07
    0.3311    0.4571  0.1353E+07  0.5515E+07  0.3483E+06  0.1954E+07  0.3159E+08  0.2511E+05  0.1937E+07  0.1926E+07
    0.4571    0.6310  0.6833E+06  0.3293E+07  0.1454E+06  0.1037E+07  0.2372E+08  0.1053E+05  0.1071E+07  0.1237E+07
    0.6310    0.8710  0.3388E+06  0.2012E+07  0.5815E+05  0.5459E+06  0.1778E+08  0.3492E+04  0.6008E+06  0.8144E+06
    0.8710    1.2023  0.1664E+06  0.1252E+07  0.2244E+05  0.2852E+06  0.1330E+08  0.1101E+04  0.3432E+06  0.5480E+06
    1.2023    1.6596  0.8080E+05  0.7836E+06  0.8527E+04  0.1484E+06  0.9943E+07  0.3229E+03  0.2001E+06  0.3761E+06
    1.6596    2.2909  0.3910E+05  0.4937E+06  0.3175E+04  0.7701E+05  0.7426E+07  0.7671E+02  0.1193E+06  0.2629E+06
    2.2909    3.1623  0.1882E+05  0.3113E+06  0.1164E+04  0.3996E+05  0.5637E+07  0.1759E+02  0.7276E+05  0.1869E+06
    3.1623    4.3652  0.9015E+04  0.1974E+06  0.4258E+03  0.2070E+05  0.4393E+07  0.3984E+01  0.4535E+05  0.1349E+06
    4.3652    6.0256  0.4323E+04  0.1253E+06  0.1545E+03  0.1068E+05  0.3423E+07  0.8942E+00  0.2888E+05  0.9871E+05
    6.0256    8.3176  0.2062E+04  0.7983E+05  0.5556E+02  0.5517E+04  0.2667E+07  0.1994E+00  0.1877E+05  0.7314E+05
    8.3176   11.4815  0.9843E+03  0.5103E+05  0.1986E+02  0.2857E+04  0.2078E+07  0.4426E-01  0.1243E+05  0.5480E+05
   11.4815   15.8489  0.4701E+03  0.3251E+05  0.7082E+01  0.1473E+04  0.1619E+07  0.9789E-02  0.8377E+04  0.4146E+05
   15.8489   21.8776  0.2242E+03  0.2082E+05  0.2510E+01  0.7609E+03  0.1303E+07  0.2160E-02  0.5739E+04  0.3165E+05
   21.8776   30.1995  0.1067E+03  0.1330E+05  0.8921E+00  0.3928E+03  0.1054E+07  0.4755E-03  0.3992E+04  0.2435E+05
   30.1995   41.6869  0.5100E+02  0.8535E+04  0.3159E+00  0.2024E+03  0.8531E+06  0.1046E-03  0.2814E+04  0.1886E+05
   41.6869   57.5440  0.2431E+02  0.5480E+04  0.1116E+00  0.1047E+03  0.6902E+06  0.2297E-04  0.2010E+04  0.1470E+05
   57.5440   79.4328  0.1160E+02  0.3503E+04  0.3943E-01  0.5427E+02  0.5584E+06  0.5043E-05  0.1451E+04  0.1152E+05
   79.4328  109.6478  0.5525E+01  0.2254E+04  0.1392E-01  0.2806E+02  0.4518E+06  0.1107E-05  0.1059E+04  0.9070E+04
  109.6478  151.3562  0.2635E+01  0.1443E+04  0.4909E-02  0.1450E+02  0.3655E+06  0.2427E-06  0.7802E+03  0.7174E+04
  151.3562  208.9296  0.1253E+01  0.9228E+03  0.1733E-02  0.7484E+01  0.2994E+06  0.5322E-07  0.5797E+03  0.5698E+04
  208.9296  288.4032  0.5984E+00  0.5906E+03  0.6126E-03  0.3856E+01  0.2524E+06  0.1167E-07  0.4341E+03  0.4542E+04
  288.4032  398.1071  0.2854E+00  0.3793E+03  0.2156E-03  0.1991E+01  0.2128E+06  0.2557E-08  0.3274E+03  0.3632E+04
  398.1071  549.5409  0.1361E+00  0.2431E+03  0.7589E-04  0.1026E+01  0.1794E+06  0.5604E-09  0.2486E+03  0.2913E+04
  549.5409  758.5778  0.6468E-01  0.1570E+03  0.2669E-04  0.5300E+00  0.1513E+06  0.1228E-09  0.1898E+03  0.2343E+04
  758.5778 1047.1285  0.3073E-01  0.1014E+03  0.9445E-05  0.2735E+00  0.1275E+06  0.2691E-10  0.1458E+03  0.1889E+04
 1047.1285 1445.4401  0.1464E-01  0.6508E+02  0.3330E-05  0.1411E+00  0.1075E+06  0.5897E-11  0.1125E+03  0.1527E+04
 1445.4401 1995.2621  0.6978E-02  0.4194E+02  0.1176E-05  0.7269E-01  0.9065E+05  0.1292E-11  0.8720E+02  0.1237E+04
 1995.2621 2754.2290  0.3325E-02  0.2698E+02  0.4118E-06  0.3750E-01  0.7642E+05  0.2831E-12  0.6789E+02  0.1004E+04
 2754.2290 3801.8933  0.1584E-02  0.1741E+02  0.1446E-06  0.1938E-01  0.6443E+05  0.6204E-13  0.5305E+02  0.8159E+03
 3801.8933 5248.0747  0.7553E-03  0.1122E+02  0.5082E-07  0.1001E-01  0.5432E+05  0.1359E-13  0.4161E+02  0.6645E+03
 5248.0747 7244.3579  0.3607E-03  0.7230E+01  0.1792E-07  0.5168E-02  0.4580E+05  0.2978E-14  0.3275E+02  0.5419E+03
 7244.3579 10000.0000  0.1719E-03  0.4654E+01  0.6310E-08  0.2674E-02  0.3861E+05  0.6526E-15  0.2585E+02  0.4427E+03
  ------------------------------------------------------------------------------------------
           TOTALS:    0.1228E+10  0.3974E+10  0.4321E+09  0.1660E+10  0.2173E+11  0.3075E+07  0.1585E+10  0.1214E+10
