                                       - FLUX SUMMARY -
 L2-CPE V1.3            Kappa-distribution     
 Cartesian (LRAD) Algorithm
 
 
 Phenomenological Region  =>  Solar Wind at SolMax (IMP-8)
 
 
 
 Species  =>  Electrons
 
 Negative X direction flux calculated.
 
 Minimum Energy =     0.0010 keV
 Maximum Energy = 10000.0000 keV
 
 Number of Energy Bins =    50
 
 50% Total Flux        =   0.1783E+10 (#/cm^2/sec)
 95% Total Flux        =   0.5686E+10 (#/cm^2/sec)
  5% Total Flux        =   0.6744E+09 (#/cm^2/sec)
  67% Total Flux       =   0.2363E+10 (#/cm^2/sec)
 Maximum Total Flux    =   0.2925E+11 (#/cm^2/sec)
 Minimum Total Flux    =   0.2893E+08 (#/cm^2/sec)
 Mean Total Flux       =   0.2281E+10 (#/cm^2/sec)
 Std. Dev. Total Flux  =   0.1701E+10 (#/cm^2/sec)
 
 
                        Differential Energy Flux Table  (#/cm^2/sec/keV)
 
    E1(keV)   E2(keV)    50%          95%         5%          67%       Maximum     Minimum     Mean       Std. Dev.
    0.0010    0.0014  0.1322E+12  0.4214E+12  0.5017E+11  0.1780E+12  0.2031E+13  0.7967E+10  0.1695E+12  0.1247E+12
    0.0014    0.0019  0.1285E+12  0.4099E+12  0.4913E+11  0.1728E+12  0.1980E+13  0.7838E+10  0.1648E+12  0.1211E+12
    0.0019    0.0026  0.1229E+12  0.3911E+12  0.4716E+11  0.1648E+12  0.1903E+13  0.3746E+10  0.1575E+12  0.1157E+12
    0.0026    0.0036  0.1146E+12  0.3649E+12  0.4406E+11  0.1532E+12  0.1792E+13  0.1517E+10  0.1468E+12  0.1081E+12
    0.0036    0.0050  0.1033E+12  0.3289E+12  0.3965E+11  0.1377E+12  0.1640E+13  0.6808E+09  0.1324E+12  0.9775E+11
    0.0050    0.0069  0.8912E+11  0.2840E+12  0.3389E+11  0.1184E+12  0.1445E+13  0.3279E+09  0.1142E+12  0.8477E+11
    0.0069    0.0095  0.7261E+11  0.2324E+12  0.2729E+11  0.9641E+11  0.1209E+13  0.1663E+09  0.9305E+11  0.6963E+11
    0.0095    0.0132  0.5520E+11  0.1769E+12  0.2041E+11  0.7322E+11  0.9461E+12  0.8762E+08  0.7075E+11  0.5343E+11
    0.0132    0.0182  0.3866E+11  0.1242E+12  0.1406E+11  0.5125E+11  0.6806E+12  0.4754E+08  0.4955E+11  0.3777E+11
    0.0182    0.0251  0.2467E+11  0.7954E+11  0.8849E+10  0.3273E+11  0.4421E+12  0.2640E+08  0.3164E+11  0.2428E+11
    0.0251    0.0347  0.1428E+11  0.4605E+11  0.5113E+10  0.1894E+11  0.2550E+12  0.1493E+08  0.1831E+11  0.1406E+11
    0.0347    0.0479  0.7502E+10  0.2405E+11  0.2723E+10  0.9938E+10  0.1291E+12  0.8569E+07  0.9603E+10  0.7313E+10
    0.0479    0.0661  0.3595E+10  0.1149E+11  0.1342E+10  0.4751E+10  0.5694E+11  0.4977E+07  0.4592E+10  0.3439E+10
    0.0661    0.0912  0.1588E+10  0.5048E+10  0.6128E+09  0.2104E+10  0.2193E+11  0.2919E+07  0.2027E+10  0.1487E+10
    0.0912    0.1259  0.6597E+09  0.2081E+10  0.2603E+09  0.8820E+09  0.8380E+10  0.1726E+07  0.8399E+09  0.6079E+09
    0.1259    0.1738  0.2603E+09  0.8269E+09  0.1023E+09  0.3450E+09  0.3399E+10  0.1027E+07  0.3329E+09  0.2434E+09
    0.1738    0.2399  0.9987E+08  0.3229E+09  0.3669E+08  0.1326E+09  0.1368E+10  0.6148E+06  0.1285E+09  0.9868E+08
    0.2399    0.3311  0.3709E+08  0.1280E+09  0.1207E+08  0.5059E+08  0.5755E+09  0.3697E+06  0.4912E+08  0.4137E+08
    0.3311    0.4571  0.1342E+08  0.5240E+08  0.3705E+07  0.1911E+08  0.3037E+09  0.2231E+06  0.1882E+08  0.1804E+08
    0.4571    0.6310  0.4759E+07  0.2199E+08  0.1079E+07  0.7141E+07  0.1606E+09  0.9561E+05  0.7298E+07  0.8150E+07
    0.6310    0.8710  0.1668E+07  0.9486E+07  0.3024E+06  0.2652E+07  0.8510E+08  0.2045E+05  0.2883E+07  0.3796E+07
    0.8710    1.2023  0.5787E+06  0.4202E+07  0.8188E+05  0.9824E+06  0.4519E+08  0.4268E+04  0.1165E+07  0.1815E+07
    1.2023    1.6596  0.1994E+06  0.1870E+07  0.2194E+05  0.3633E+06  0.2404E+08  0.8753E+03  0.4822E+06  0.8882E+06
    1.6596    2.2909  0.6868E+05  0.8415E+06  0.5776E+04  0.1344E+06  0.1281E+08  0.1440E+03  0.2048E+06  0.4439E+06
    2.2909    3.1623  0.2363E+05  0.3816E+06  0.1506E+04  0.4980E+05  0.6840E+07  0.2334E+02  0.8922E+05  0.2261E+06
    3.1623    4.3652  0.8097E+04  0.1734E+06  0.3916E+03  0.1845E+05  0.3828E+07  0.3750E+01  0.3983E+05  0.1172E+06
    4.3652    6.0256  0.2777E+04  0.7916E+05  0.1015E+03  0.6825E+04  0.2146E+07  0.5989E+00  0.1820E+05  0.6167E+05
    6.0256    8.3176  0.9509E+03  0.3628E+05  0.2606E+02  0.2534E+04  0.1204E+07  0.9526E-01  0.8501E+04  0.3291E+05
    8.3176   11.4815  0.3262E+03  0.1664E+05  0.6691E+01  0.9414E+03  0.6761E+06  0.1511E-01  0.4052E+04  0.1777E+05
   11.4815   15.8489  0.1121E+03  0.7667E+04  0.1710E+01  0.3497E+03  0.3800E+06  0.2394E-02  0.1968E+04  0.9700E+04
   15.8489   21.8776  0.3852E+02  0.3532E+04  0.4361E+00  0.1303E+03  0.2198E+06  0.3789E-03  0.9727E+03  0.5345E+04
   21.8776   30.1995  0.1322E+02  0.1632E+04  0.1114E+00  0.4849E+02  0.1285E+06  0.5994E-04  0.4883E+03  0.2970E+04
   30.1995   41.6869  0.4556E+01  0.7557E+03  0.2842E-01  0.1803E+02  0.7516E+05  0.9481E-05  0.2487E+03  0.1663E+04
   41.6869   57.5440  0.1566E+01  0.3508E+03  0.7221E-02  0.6734E+01  0.4398E+05  0.1500E-05  0.1283E+03  0.9368E+03
   57.5440   79.4328  0.5394E+00  0.1620E+03  0.1843E-02  0.2519E+01  0.2573E+05  0.2373E-06  0.6700E+02  0.5309E+03
   79.4328  109.6478  0.1859E+00  0.7542E+02  0.4704E-03  0.9418E+00  0.1506E+05  0.3755E-07  0.3536E+02  0.3025E+03
  109.6478  151.3562  0.6399E-01  0.3490E+02  0.1196E-03  0.3519E+00  0.8819E+04  0.5945E-08  0.1884E+02  0.1731E+03
  151.3562  208.9296  0.2201E-01  0.1616E+02  0.3053E-04  0.1313E+00  0.5231E+04  0.9413E-09  0.1013E+02  0.9951E+02
  208.9296  288.4032  0.7602E-02  0.7481E+01  0.7816E-05  0.4896E-01  0.3192E+04  0.1491E-09  0.5491E+01  0.5741E+02
  288.4032  398.1071  0.2623E-02  0.3475E+01  0.1984E-05  0.1828E-01  0.1948E+04  0.2362E-10  0.2998E+01  0.3324E+02
  398.1071  549.5409  0.9052E-03  0.1614E+01  0.5063E-06  0.6821E-02  0.1189E+04  0.3743E-11  0.1647E+01  0.1930E+02
  549.5409  758.5778  0.3112E-03  0.7547E+00  0.1287E-06  0.2548E-02  0.7258E+03  0.5932E-12  0.9109E+00  0.1124E+02
  758.5778 1047.1285  0.1070E-03  0.3524E+00  0.3296E-07  0.9520E-03  0.4431E+03  0.9403E-13  0.5065E+00  0.6564E+01
 1047.1285 1445.4401  0.3691E-04  0.1641E+00  0.8412E-08  0.3557E-03  0.2705E+03  0.1491E-13  0.2830E+00  0.3842E+01
 1445.4401 1995.2621  0.1273E-04  0.7646E-01  0.2147E-08  0.1326E-03  0.1652E+03  0.2364E-14  0.1589E+00  0.2253E+01
 1995.2621 2754.2290  0.4393E-05  0.3562E-01  0.5448E-09  0.4954E-04  0.1009E+03  0.3749E-15  0.8959E-01  0.1324E+01
 2754.2290 3801.8933  0.1516E-05  0.1665E-01  0.1385E-09  0.1854E-04  0.6158E+02  0.5947E-16  0.5071E-01  0.7798E+00
 3801.8933 5248.0747  0.5236E-06  0.7768E-02  0.3525E-10  0.6938E-05  0.3760E+02  0.9433E-17  0.2881E-01  0.4599E+00
 5248.0747 7244.3579  0.1811E-06  0.3627E-02  0.9002E-11  0.2593E-05  0.2296E+02  0.1497E-17  0.1642E-01  0.2717E+00
 7244.3579 10000.0000  0.6249E-07  0.1691E-02  0.2296E-11  0.9715E-06  0.1402E+02  0.2374E-18  0.9388E-02  0.1608E+00
 
 
                       Particle Flux per Energy Bin Table  (#/cm^2/sec)
 
    E1(keV)   E2(keV)    50%          95%         5%          67%       Maximum     Minimum     Mean       Std. Dev.
    0.0010    0.0014  0.5028E+08  0.1603E+09  0.1909E+08  0.6769E+08  0.7725E+09  0.3031E+07  0.6447E+08  0.4742E+08
    0.0014    0.0019  0.6749E+08  0.2152E+09  0.2580E+08  0.9075E+08  0.1040E+10  0.4116E+07  0.8654E+08  0.6360E+08
    0.0019    0.0026  0.8906E+08  0.2834E+09  0.3418E+08  0.1194E+09  0.1379E+10  0.2715E+07  0.1141E+09  0.8389E+08
    0.0026    0.0036  0.1146E+09  0.3651E+09  0.4408E+08  0.1533E+09  0.1793E+10  0.1518E+07  0.1469E+09  0.1081E+09
    0.0036    0.0050  0.1427E+09  0.4543E+09  0.5476E+08  0.1901E+09  0.2266E+10  0.9403E+06  0.1828E+09  0.1350E+09
    0.0050    0.0069  0.1699E+09  0.5414E+09  0.6461E+08  0.2258E+09  0.2755E+10  0.6252E+06  0.2176E+09  0.1616E+09
    0.0069    0.0095  0.1911E+09  0.6115E+09  0.7182E+08  0.2537E+09  0.3182E+10  0.4376E+06  0.2449E+09  0.1832E+09
    0.0095    0.0132  0.2005E+09  0.6427E+09  0.7414E+08  0.2660E+09  0.3437E+10  0.3183E+06  0.2570E+09  0.1941E+09
    0.0132    0.0182  0.1939E+09  0.6226E+09  0.7052E+08  0.2570E+09  0.3413E+10  0.2384E+06  0.2485E+09  0.1894E+09
    0.0182    0.0251  0.1708E+09  0.5505E+09  0.6125E+08  0.2265E+09  0.3060E+10  0.1827E+06  0.2190E+09  0.1680E+09
    0.0251    0.0347  0.1365E+09  0.4400E+09  0.4886E+08  0.1810E+09  0.2437E+10  0.1427E+06  0.1750E+09  0.1343E+09
    0.0347    0.0479  0.9894E+08  0.3172E+09  0.3591E+08  0.1311E+09  0.1702E+10  0.1130E+06  0.1267E+09  0.9645E+08
    0.0479    0.0661  0.6546E+08  0.2092E+09  0.2443E+08  0.8649E+08  0.1037E+10  0.9061E+05  0.8360E+08  0.6261E+08
    0.0661    0.0912  0.3990E+08  0.1269E+09  0.1540E+08  0.5288E+08  0.5513E+09  0.7336E+05  0.5094E+08  0.3737E+08
    0.0912    0.1259  0.2289E+08  0.7219E+08  0.9032E+07  0.3060E+08  0.2907E+09  0.5988E+05  0.2914E+08  0.2109E+08
    0.1259    0.1738  0.1247E+08  0.3960E+08  0.4897E+07  0.1652E+08  0.1628E+09  0.4919E+05  0.1594E+08  0.1166E+08
    0.1738    0.2399  0.6602E+07  0.2134E+08  0.2426E+07  0.8766E+07  0.9043E+08  0.4064E+05  0.8497E+07  0.6523E+07
    0.2399    0.3311  0.3385E+07  0.1168E+08  0.1102E+07  0.4616E+07  0.5251E+08  0.3373E+05  0.4482E+07  0.3775E+07
    0.3311    0.4571  0.1690E+07  0.6600E+07  0.4667E+06  0.2407E+07  0.3826E+08  0.2811E+05  0.2371E+07  0.2272E+07
    0.4571    0.6310  0.8274E+06  0.3823E+07  0.1877E+06  0.1242E+07  0.2792E+08  0.1662E+05  0.1269E+07  0.1417E+07
    0.6310    0.8710  0.4003E+06  0.2277E+07  0.7258E+05  0.6366E+06  0.2043E+08  0.4909E+04  0.6919E+06  0.9111E+06
    0.8710    1.2023  0.1917E+06  0.1392E+07  0.2713E+05  0.3255E+06  0.1497E+08  0.1414E+04  0.3858E+06  0.6013E+06
    1.2023    1.6596  0.9121E+05  0.8552E+06  0.1003E+05  0.1661E+06  0.1099E+08  0.4003E+03  0.2205E+06  0.4062E+06
    1.6596    2.2909  0.4336E+05  0.5312E+06  0.3646E+04  0.8484E+05  0.8088E+07  0.9089E+02  0.1293E+06  0.2802E+06
    2.2909    3.1623  0.2059E+05  0.3326E+06  0.1313E+04  0.4340E+05  0.5960E+07  0.2034E+02  0.7774E+05  0.1970E+06
    3.1623    4.3652  0.9740E+04  0.2086E+06  0.4710E+03  0.2219E+05  0.4605E+07  0.4511E+01  0.4791E+05  0.1410E+06
    4.3652    6.0256  0.4611E+04  0.1314E+06  0.1685E+03  0.1133E+05  0.3563E+07  0.9944E+00  0.3022E+05  0.1024E+06
    6.0256    8.3176  0.2179E+04  0.8316E+05  0.5972E+02  0.5808E+04  0.2759E+07  0.2183E+00  0.1948E+05  0.7542E+05
    8.3176   11.4815  0.1032E+04  0.5264E+05  0.2117E+02  0.2979E+04  0.2139E+07  0.4781E-01  0.1282E+05  0.5622E+05
   11.4815   15.8489  0.4896E+03  0.3349E+05  0.7470E+01  0.1527E+04  0.1659E+07  0.1046E-01  0.8596E+04  0.4236E+05
   15.8489   21.8776  0.2322E+03  0.2130E+05  0.2629E+01  0.7853E+03  0.1325E+07  0.2284E-02  0.5864E+04  0.3222E+05
   21.8776   30.1995  0.1100E+03  0.1359E+05  0.9271E+00  0.4035E+03  0.1069E+07  0.4988E-03  0.4064E+04  0.2472E+05
   30.1995   41.6869  0.5233E+02  0.8681E+04  0.3264E+00  0.2071E+03  0.8634E+06  0.1089E-03  0.2857E+04  0.1910E+05
   41.6869   57.5440  0.2483E+02  0.5562E+04  0.1145E+00  0.1068E+03  0.6973E+06  0.2378E-04  0.2035E+04  0.1485E+05
   57.5440   79.4328  0.1181E+02  0.3547E+04  0.4034E-01  0.5514E+02  0.5633E+06  0.5194E-05  0.1467E+04  0.1162E+05
   79.4328  109.6478  0.5616E+01  0.2279E+04  0.1421E-01  0.2846E+02  0.4551E+06  0.1135E-05  0.1068E+04  0.9139E+04
  109.6478  151.3562  0.2669E+01  0.1456E+04  0.4989E-02  0.1468E+02  0.3678E+06  0.2479E-06  0.7859E+03  0.7221E+04
  151.3562  208.9296  0.1267E+01  0.9302E+03  0.1758E-02  0.7562E+01  0.3011E+06  0.5419E-07  0.5833E+03  0.5729E+04
  208.9296  288.4032  0.6042E+00  0.5946E+03  0.6212E-03  0.3891E+01  0.2537E+06  0.1185E-07  0.4364E+03  0.4563E+04
  288.4032  398.1071  0.2877E+00  0.3812E+03  0.2176E-03  0.2006E+01  0.2137E+06  0.2591E-08  0.3288E+03  0.3646E+04
  398.1071  549.5409  0.1371E+00  0.2444E+03  0.7667E-04  0.1033E+01  0.1801E+06  0.5668E-09  0.2495E+03  0.2923E+04
  549.5409  758.5778  0.6505E-01  0.1578E+03  0.2691E-04  0.5327E+00  0.1517E+06  0.1240E-09  0.1904E+03  0.2350E+04
  758.5778 1047.1285  0.3089E-01  0.1017E+03  0.9511E-05  0.2747E+00  0.1279E+06  0.2713E-10  0.1461E+03  0.1894E+04
 1047.1285 1445.4401  0.1470E-01  0.6535E+02  0.3351E-05  0.1417E+00  0.1078E+06  0.5938E-11  0.1127E+03  0.1530E+04
 1445.4401 1995.2621  0.7001E-02  0.4204E+02  0.1181E-05  0.7291E-01  0.9082E+05  0.1300E-11  0.8736E+02  0.1239E+04
 1995.2621 2754.2290  0.3334E-02  0.2704E+02  0.4135E-06  0.3760E-01  0.7654E+05  0.2846E-12  0.6799E+02  0.1005E+04
 2754.2290 3801.8933  0.1588E-02  0.1745E+02  0.1451E-06  0.1942E-01  0.6452E+05  0.6230E-13  0.5313E+02  0.8169E+03
 3801.8933 5248.0747  0.7572E-03  0.1123E+02  0.5098E-07  0.1003E-01  0.5438E+05  0.1364E-13  0.4166E+02  0.6651E+03
 5248.0747 7244.3579  0.3616E-03  0.7240E+01  0.1797E-07  0.5177E-02  0.4584E+05  0.2987E-14  0.3278E+02  0.5424E+03
 7244.3579 10000.0000  0.1722E-03  0.4659E+01  0.6326E-08  0.2677E-02  0.3864E+05  0.6543E-15  0.2587E+02  0.4430E+03
  ------------------------------------------------------------------------------------------
           TOTALS:    0.1780E+10  0.5701E+10  0.6631E+09  0.2367E+10  0.2957E+11  0.1478E+08  0.2281E+10  0.1715E+10
