                                       - FLUX SUMMARY -
 L2-CPE V1.3            Kappa-distribution     
 Cartesian (LRAD) Algorithm
 
 
 Phenomenological Region  =>  Solar Wind at SolMax (IMP-8)
 
 
 
 Species  =>  Electrons
 
 Positive Y direction flux calculated.
 
 Minimum Energy =     0.0010 keV
 Maximum Energy = 10000.0000 keV
 
 Number of Energy Bins =    50
 
 50% Total Flux        =   0.1217E+10 (#/cm^2/sec)
 95% Total Flux        =   0.3898E+10 (#/cm^2/sec)
  5% Total Flux        =   0.4289E+09 (#/cm^2/sec)
  67% Total Flux       =   0.1639E+10 (#/cm^2/sec)
 Maximum Total Flux    =   0.2086E+11 (#/cm^2/sec)
 Minimum Total Flux    =   0.3293E+07 (#/cm^2/sec)
 Mean Total Flux       =   0.1564E+10 (#/cm^2/sec)
 Std. Dev. Total Flux  =   0.1183E+10 (#/cm^2/sec)
 
 
                        Differential Energy Flux Table  (#/cm^2/sec/keV)
 
    E1(keV)   E2(keV)    50%          95%         5%          67%       Maximum     Minimum     Mean       Std. Dev.
    0.0010    0.0014  0.1136E+12  0.3628E+12  0.4209E+11  0.1535E+12  0.1806E+13  0.1366E+10  0.1460E+12  0.1081E+12
    0.0014    0.0019  0.1067E+12  0.3413E+12  0.3927E+11  0.1441E+12  0.1716E+13  0.8273E+09  0.1372E+12  0.1018E+12
    0.0019    0.0026  0.9811E+11  0.3136E+12  0.3576E+11  0.1324E+12  0.1601E+13  0.5021E+09  0.1261E+12  0.9396E+11
    0.0026    0.0036  0.8772E+11  0.2806E+12  0.3162E+11  0.1183E+12  0.1459E+13  0.3054E+09  0.1128E+12  0.8444E+11
    0.0036    0.0050  0.7564E+11  0.2423E+12  0.2690E+11  0.1020E+12  0.1287E+13  0.1861E+09  0.9730E+11  0.7333E+11
    0.0050    0.0069  0.6237E+11  0.2004E+12  0.2179E+11  0.8411E+11  0.1090E+13  0.1135E+09  0.8031E+11  0.6098E+11
    0.0069    0.0095  0.4872E+11  0.1572E+12  0.1671E+11  0.6573E+11  0.8746E+12  0.6938E+08  0.6278E+11  0.4805E+11
    0.0095    0.0132  0.3568E+11  0.1155E+12  0.1202E+11  0.4817E+11  0.6565E+12  0.4245E+08  0.4600E+11  0.3548E+11
    0.0132    0.0182  0.2425E+11  0.7878E+11  0.8082E+10  0.3278E+11  0.4541E+12  0.2600E+08  0.3131E+11  0.2428E+11
    0.0182    0.0251  0.1521E+11  0.4944E+11  0.5062E+10  0.2056E+11  0.2852E+12  0.1594E+08  0.1964E+11  0.1525E+11
    0.0251    0.0347  0.8777E+10  0.2843E+11  0.2950E+10  0.1185E+11  0.1605E+12  0.9779E+07  0.1132E+11  0.8736E+10
    0.0347    0.0479  0.4653E+10  0.1497E+11  0.1604E+10  0.6275E+10  0.8015E+11  0.6004E+07  0.5992E+10  0.4565E+10
    0.0479    0.0661  0.2277E+10  0.7293E+10  0.8130E+09  0.3074E+10  0.3534E+11  0.3688E+07  0.2930E+10  0.2192E+10
    0.0661    0.0912  0.1035E+10  0.3310E+10  0.3855E+09  0.1412E+10  0.1391E+11  0.2267E+07  0.1336E+10  0.9824E+09
    0.0912    0.1259  0.4453E+09  0.1425E+10  0.1690E+09  0.6130E+09  0.5854E+10  0.1394E+07  0.5765E+09  0.4214E+09
    0.1259    0.1738  0.1857E+09  0.5950E+09  0.6750E+08  0.2498E+09  0.2518E+10  0.8575E+06  0.2387E+09  0.1782E+09
    0.1738    0.2399  0.7419E+08  0.2448E+09  0.2504E+08  0.1001E+09  0.1051E+10  0.5276E+06  0.9630E+08  0.7621E+08
    0.2399    0.3311  0.2854E+08  0.1018E+09  0.8557E+07  0.3959E+08  0.4584E+09  0.3247E+06  0.3837E+08  0.3349E+08
    0.3311    0.4571  0.1067E+08  0.4350E+08  0.2734E+07  0.1543E+08  0.2471E+09  0.1999E+06  0.1527E+08  0.1517E+08
    0.4571    0.6310  0.3906E+07  0.1883E+08  0.8301E+06  0.5934E+07  0.1347E+09  0.5812E+05  0.6126E+07  0.7071E+07
    0.6310    0.8710  0.1404E+07  0.8356E+07  0.2408E+06  0.2263E+07  0.7328E+08  0.1404E+05  0.2491E+07  0.3376E+07
    0.8710    1.2023  0.4994E+06  0.3767E+07  0.6717E+05  0.8570E+06  0.3979E+08  0.3306E+04  0.1032E+07  0.1647E+07
    1.2023    1.6596  0.1760E+06  0.1708E+07  0.1855E+05  0.3231E+06  0.2157E+08  0.7042E+03  0.4362E+06  0.8197E+06
    1.6596    2.2909  0.6173E+05  0.7803E+06  0.5003E+04  0.1216E+06  0.1169E+08  0.1234E+03  0.1885E+06  0.4153E+06
    2.2909    3.1623  0.2154E+05  0.3565E+06  0.1331E+04  0.4578E+05  0.6425E+07  0.2045E+02  0.8330E+05  0.2140E+06
    3.1623    4.3652  0.7474E+04  0.1639E+06  0.3522E+03  0.1717E+05  0.3631E+07  0.3349E+01  0.3763E+05  0.1119E+06
    4.3652    6.0256  0.2599E+04  0.7534E+05  0.9277E+02  0.6413E+04  0.2051E+07  0.5437E+00  0.1737E+05  0.5936E+05
    6.0256    8.3176  0.8984E+03  0.3480E+05  0.2421E+02  0.2404E+04  0.1159E+07  0.8772E-01  0.8177E+04  0.3187E+05
    8.3176   11.4815  0.3103E+03  0.1611E+05  0.6270E+01  0.9014E+03  0.6544E+06  0.1409E-01  0.3924E+04  0.1730E+05
   11.4815   15.8489  0.1075E+03  0.7437E+04  0.1618E+01  0.3368E+03  0.3696E+06  0.2255E-02  0.1916E+04  0.9486E+04
   15.8489   21.8776  0.3717E+02  0.3447E+04  0.4151E+00  0.1261E+03  0.2162E+06  0.3600E-03  0.9513E+03  0.5246E+04
   21.8776   30.1995  0.1282E+02  0.1599E+04  0.1072E+00  0.4715E+02  0.1267E+06  0.5739E-04  0.4794E+03  0.2924E+04
   30.1995   41.6869  0.4436E+01  0.7421E+03  0.2747E-01  0.1761E+02  0.7427E+05  0.9137E-05  0.2449E+03  0.1641E+04
   41.6869   57.5440  0.1532E+01  0.3453E+03  0.7026E-02  0.6599E+01  0.4353E+05  0.1453E-05  0.1267E+03  0.9264E+03
   57.5440   79.4328  0.5294E+00  0.1599E+03  0.1799E-02  0.2477E+01  0.2551E+05  0.2310E-06  0.6628E+02  0.5260E+03
   79.4328  109.6478  0.1828E+00  0.7461E+02  0.4602E-03  0.9286E+00  0.1495E+05  0.3671E-07  0.3504E+02  0.3001E+03
  109.6478  151.3562  0.6315E-01  0.3457E+02  0.1176E-03  0.3476E+00  0.8764E+04  0.5830E-08  0.1870E+02  0.1720E+03
  151.3562  208.9296  0.2177E-01  0.1602E+02  0.3008E-04  0.1299E+00  0.5203E+04  0.9259E-09  0.1007E+02  0.9895E+02
  208.9296  288.4032  0.7530E-02  0.7428E+01  0.7716E-05  0.4851E-01  0.3178E+04  0.1470E-09  0.5461E+01  0.5714E+02
  288.4032  398.1071  0.2601E-02  0.3456E+01  0.1965E-05  0.1815E-01  0.1941E+04  0.2334E-10  0.2984E+01  0.3310E+02
  398.1071  549.5409  0.8987E-03  0.1605E+01  0.5011E-06  0.6774E-02  0.1185E+04  0.3705E-11  0.1641E+01  0.1924E+02
  549.5409  758.5778  0.3094E-03  0.7512E+00  0.1277E-06  0.2535E-02  0.7238E+03  0.5881E-12  0.9080E+00  0.1121E+02
  758.5778 1047.1285  0.1065E-03  0.3514E+00  0.3273E-07  0.9479E-03  0.4421E+03  0.9334E-13  0.5051E+00  0.6548E+01
 1047.1285 1445.4401  0.3675E-04  0.1634E+00  0.8358E-08  0.3543E-03  0.2700E+03  0.1482E-13  0.2824E+00  0.3834E+01
 1445.4401 1995.2621  0.1269E-04  0.7627E-01  0.2138E-08  0.1322E-03  0.1649E+03  0.2352E-14  0.1586E+00  0.2249E+01
 1995.2621 2754.2290  0.4379E-05  0.3554E-01  0.5426E-09  0.4940E-04  0.1007E+03  0.3732E-15  0.8944E-01  0.1322E+01
 2754.2290 3801.8933  0.1512E-05  0.1662E-01  0.1380E-09  0.1849E-04  0.6151E+02  0.5924E-16  0.5064E-01  0.7788E+00
 3801.8933 5248.0747  0.5222E-06  0.7757E-02  0.3513E-10  0.6924E-05  0.3756E+02  0.9402E-17  0.2877E-01  0.4594E+00
 5248.0747 7244.3579  0.1807E-06  0.3622E-02  0.8976E-11  0.2588E-05  0.2294E+02  0.1492E-17  0.1640E-01  0.2715E+00
 7244.3579 10000.0000  0.6238E-07  0.1689E-02  0.2290E-11  0.9702E-06  0.1401E+02  0.2369E-18  0.9380E-02  0.1606E+00
 
 
                       Particle Flux per Energy Bin Table  (#/cm^2/sec)
 
    E1(keV)   E2(keV)    50%          95%         5%          67%       Maximum     Minimum     Mean       Std. Dev.
    0.0010    0.0014  0.4321E+08  0.1380E+09  0.1601E+08  0.5839E+08  0.6870E+09  0.5197E+06  0.5555E+08  0.4112E+08
    0.0014    0.0019  0.5601E+08  0.1792E+09  0.2062E+08  0.7569E+08  0.9011E+09  0.4344E+06  0.7202E+08  0.5346E+08
    0.0019    0.0026  0.7111E+08  0.2273E+09  0.2592E+08  0.9597E+08  0.1161E+10  0.3640E+06  0.9140E+08  0.6810E+08
    0.0026    0.0036  0.8776E+08  0.2808E+09  0.3163E+08  0.1183E+09  0.1460E+10  0.3055E+06  0.1128E+09  0.8448E+08
    0.0036    0.0050  0.1045E+09  0.3347E+09  0.3715E+08  0.1409E+09  0.1778E+10  0.2570E+06  0.1344E+09  0.1013E+09
    0.0050    0.0069  0.1189E+09  0.3820E+09  0.4154E+08  0.1603E+09  0.2078E+10  0.2165E+06  0.1531E+09  0.1162E+09
    0.0069    0.0095  0.1282E+09  0.4136E+09  0.4398E+08  0.1730E+09  0.2302E+10  0.1826E+06  0.1652E+09  0.1264E+09
    0.0095    0.0132  0.1296E+09  0.4196E+09  0.4365E+08  0.1750E+09  0.2385E+10  0.1542E+06  0.1671E+09  0.1289E+09
    0.0132    0.0182  0.1216E+09  0.3951E+09  0.4053E+08  0.1644E+09  0.2277E+10  0.1304E+06  0.1570E+09  0.1217E+09
    0.0182    0.0251  0.1053E+09  0.3422E+09  0.3504E+08  0.1423E+09  0.1974E+10  0.1103E+06  0.1360E+09  0.1055E+09
    0.0251    0.0347  0.8387E+08  0.2716E+09  0.2818E+08  0.1132E+09  0.1534E+10  0.9344E+05  0.1082E+09  0.8347E+08
    0.0347    0.0479  0.6137E+08  0.1975E+09  0.2116E+08  0.8277E+08  0.1057E+10  0.7919E+05  0.7903E+08  0.6021E+08
    0.0479    0.0661  0.4146E+08  0.1328E+09  0.1480E+08  0.5597E+08  0.6434E+09  0.6715E+05  0.5334E+08  0.3990E+08
    0.0661    0.0912  0.2601E+08  0.8317E+08  0.9688E+07  0.3549E+08  0.3495E+09  0.5697E+05  0.3359E+08  0.2469E+08
    0.0912    0.1259  0.1545E+08  0.4945E+08  0.5862E+07  0.2127E+08  0.2031E+09  0.4836E+05  0.2000E+08  0.1462E+08
    0.1259    0.1738  0.8891E+07  0.2849E+08  0.3232E+07  0.1196E+08  0.1206E+09  0.4106E+05  0.1143E+08  0.8533E+07
    0.1738    0.2399  0.4904E+07  0.1618E+08  0.1655E+07  0.6619E+07  0.6947E+08  0.3488E+05  0.6366E+07  0.5038E+07
    0.2399    0.3311  0.2605E+07  0.9287E+07  0.7808E+06  0.3613E+07  0.4183E+08  0.2963E+05  0.3501E+07  0.3056E+07
    0.3311    0.4571  0.1344E+07  0.5479E+07  0.3444E+06  0.1943E+07  0.3113E+08  0.2518E+05  0.1924E+07  0.1911E+07
    0.4571    0.6310  0.6792E+06  0.3274E+07  0.1443E+06  0.1032E+07  0.2343E+08  0.1011E+05  0.1065E+07  0.1229E+07
    0.6310    0.8710  0.3370E+06  0.2005E+07  0.5780E+05  0.5432E+06  0.1759E+08  0.3369E+04  0.5979E+06  0.8104E+06
    0.8710    1.2023  0.1654E+06  0.1248E+07  0.2225E+05  0.2839E+06  0.1318E+08  0.1095E+04  0.3418E+06  0.5458E+06
    1.2023    1.6596  0.8051E+05  0.7813E+06  0.8485E+04  0.1478E+06  0.9866E+07  0.3220E+03  0.1995E+06  0.3749E+06
    1.6596    2.2909  0.3897E+05  0.4926E+06  0.3158E+04  0.7676E+05  0.7377E+07  0.7789E+02  0.1190E+06  0.2622E+06
    2.2909    3.1623  0.1877E+05  0.3107E+06  0.1160E+04  0.3989E+05  0.5599E+07  0.1782E+02  0.7259E+05  0.1865E+06
    3.1623    4.3652  0.8990E+04  0.1971E+06  0.4237E+03  0.2065E+05  0.4367E+07  0.4029E+01  0.4527E+05  0.1346E+06
    4.3652    6.0256  0.4315E+04  0.1251E+06  0.1540E+03  0.1065E+05  0.3406E+07  0.9028E+00  0.2883E+05  0.9856E+05
    6.0256    8.3176  0.2059E+04  0.7976E+05  0.5548E+02  0.5511E+04  0.2656E+07  0.2011E+00  0.1874E+05  0.7305E+05
    8.3176   11.4815  0.9819E+03  0.5097E+05  0.1984E+02  0.2852E+04  0.2070E+07  0.4457E-01  0.1241E+05  0.5474E+05
   11.4815   15.8489  0.4694E+03  0.3248E+05  0.7068E+01  0.1471E+04  0.1614E+07  0.9848E-02  0.8369E+04  0.4143E+05
   15.8489   21.8776  0.2241E+03  0.2078E+05  0.2502E+01  0.7601E+03  0.1303E+07  0.2171E-02  0.5735E+04  0.3163E+05
   21.8776   30.1995  0.1067E+03  0.1330E+05  0.8919E+00  0.3924E+03  0.1055E+07  0.4776E-03  0.3989E+04  0.2433E+05
   30.1995   41.6869  0.5095E+02  0.8525E+04  0.3156E+00  0.2023E+03  0.8532E+06  0.1050E-03  0.2813E+04  0.1885E+05
   41.6869   57.5440  0.2429E+02  0.5475E+04  0.1114E+00  0.1046E+03  0.6903E+06  0.2305E-04  0.2009E+04  0.1469E+05
   57.5440   79.4328  0.1159E+02  0.3501E+04  0.3938E-01  0.5421E+02  0.5584E+06  0.5057E-05  0.1451E+04  0.1151E+05
   79.4328  109.6478  0.5524E+01  0.2254E+04  0.1390E-01  0.2806E+02  0.4518E+06  0.1109E-05  0.1059E+04  0.9067E+04
  109.6478  151.3562  0.2634E+01  0.1442E+04  0.4905E-02  0.1450E+02  0.3655E+06  0.2432E-06  0.7800E+03  0.7173E+04
  151.3562  208.9296  0.1253E+01  0.9224E+03  0.1732E-02  0.7481E+01  0.2996E+06  0.5330E-07  0.5796E+03  0.5697E+04
  208.9296  288.4032  0.5985E+00  0.5903E+03  0.6132E-03  0.3855E+01  0.2525E+06  0.1168E-07  0.4340E+03  0.4541E+04
  288.4032  398.1071  0.2853E+00  0.3791E+03  0.2155E-03  0.1991E+01  0.2129E+06  0.2560E-08  0.3274E+03  0.3632E+04
  398.1071  549.5409  0.1361E+00  0.2430E+03  0.7588E-04  0.1026E+01  0.1795E+06  0.5610E-09  0.2485E+03  0.2913E+04
  549.5409  758.5778  0.6467E-01  0.1570E+03  0.2669E-04  0.5300E+00  0.1513E+06  0.1229E-09  0.1898E+03  0.2343E+04
  758.5778 1047.1285  0.3072E-01  0.1014E+03  0.9443E-05  0.2735E+00  0.1276E+06  0.2693E-10  0.1457E+03  0.1889E+04
 1047.1285 1445.4401  0.1464E-01  0.6507E+02  0.3329E-05  0.1411E+00  0.1075E+06  0.5901E-11  0.1125E+03  0.1527E+04
 1445.4401 1995.2621  0.6977E-02  0.4194E+02  0.1176E-05  0.7268E-01  0.9066E+05  0.1293E-11  0.8719E+02  0.1237E+04
 1995.2621 2754.2290  0.3324E-02  0.2698E+02  0.4118E-06  0.3749E-01  0.7643E+05  0.2833E-12  0.6788E+02  0.1004E+04
 2754.2290 3801.8933  0.1584E-02  0.1741E+02  0.1446E-06  0.1938E-01  0.6444E+05  0.6206E-13  0.5305E+02  0.8159E+03
 3801.8933 5248.0747  0.7552E-03  0.1122E+02  0.5080E-07  0.1001E-01  0.5432E+05  0.1360E-13  0.4161E+02  0.6644E+03
 5248.0747 7244.3579  0.3607E-03  0.7231E+01  0.1792E-07  0.5167E-02  0.4580E+05  0.2979E-14  0.3275E+02  0.5419E+03
 7244.3579 10000.0000  0.1719E-03  0.4654E+01  0.6310E-08  0.2673E-02  0.3861E+05  0.6527E-15  0.2585E+02  0.4427E+03
  ------------------------------------------------------------------------------------------
           TOTALS:    0.1213E+10  0.3915E+10  0.4220E+09  0.1639E+10  0.2115E+11  0.3165E+07  0.1564E+10  0.1193E+10
